"channel","beat","sample","rr_pre_ms","rr_post_ms","prematurity","compensatory","morph_corr","is_pvc"
1,1,58,NA,816.6666666667,NA,NA,0.6116333149,FALSE
1,2,352,816.6666666667,1038.8888888889,0.8776119403,0.9970149254,0.9909311639,FALSE
1,3,726,1038.8888888889,1002.7777777778,1.1164179104,1.0970149254,0.9899248432,FALSE
1,4,1087,1002.7777777778,1005.5555555556,1.0776119403,1.0791044776,0.9906666554,FALSE
1,5,1449,1005.5555555556,1061.1111111111,1.0805970149,1.1104477612,0.9921628187,FALSE
1,6,1831,1061.1111111111,1022.2222222222,1.1402985075,1.1194029851,0.979804747,FALSE
1,7,2199,1022.2222222222,1036.1111111111,1.0985074627,1.1059701493,0.9924669278,FALSE
1,8,2572,1036.1111111111,966.6666666667,1.1134328358,1.076119403,0.9910091498,FALSE
1,9,2920,966.6666666667,875,1.0388059701,0.9895522388,0.9878761567,FALSE
1,10,3235,875,936.1111111111,0.9402985075,0.9731343284,0.9932848013,FALSE
1,11,3572,936.1111111111,1000,1.0059701493,1.0402985075,0.9939013085,FALSE
1,12,3932,1000,975,1.0746268657,1.0611940299,0.9974402167,FALSE
1,13,4283,975,919.4444444444,1.047761194,1.0179104478,0.9945136756,FALSE
1,14,4614,919.4444444444,927.7777777778,0.9880597015,0.9925373134,0.9872163788,FALSE
1,15,4948,927.7777777778,855.5555555556,0.9970149254,0.9582089552,0.9825178494,FALSE
1,16,5256,855.5555555556,841.6666666667,0.9194029851,0.9119402985,0.9952603945,FALSE
1,17,5559,841.6666666667,847.2222222222,0.9044776119,0.9074626866,0.9894994155,FALSE
1,18,5864,847.2222222222,866.6666666667,0.9104477612,0.9208955224,0.9957360564,FALSE
1,19,6176,866.6666666667,825,0.9313432836,0.9089552239,0.9855174945,FALSE
1,20,6473,825,791.6666666667,0.8865671642,0.8686567164,0.9939856011,FALSE
1,21,6758,791.6666666667,800,0.8507462687,0.8552238806,0.9959659554,FALSE
1,22,7046,800,808.3333333333,0.8597014925,0.8641791045,0.9923943035,FALSE
1,23,7337,808.3333333333,775,0.8686567164,0.8507462687,0.9877792807,FALSE
1,24,7616,775,783.3333333333,0.8328358209,0.8373134328,0.9734207468,FALSE
1,25,7898,783.3333333333,794.4444444444,0.8417910448,0.847761194,0.9912320474,FALSE
1,26,8184,794.4444444444,811.1111111111,0.8537313433,0.8626865672,0.9851784052,FALSE
1,27,8476,811.1111111111,786.1111111111,0.871641791,0.8582089552,0.9789586406,FALSE
1,28,8759,786.1111111111,741.6666666667,0.8447761194,0.8208955224,0.989440225,FALSE
1,29,9026,741.6666666667,686.1111111111,0.7970149254,0.7671641791,0.9922774659,FALSE
1,30,9273,686.1111111111,680.5555555556,0.7373134328,0.7343283582,0.9801478523,FALSE
1,31,9518,680.5555555556,700,0.7313432836,0.7417910448,0.9803621001,FALSE
1,32,9770,700,750,0.752238806,0.7791044776,0.9880421066,FALSE
1,33,10040,750,766.6666666667,0.8059701493,0.8149253731,0.9938123677,FALSE
1,34,10316,766.6666666667,744.4444444444,0.823880597,0.8119402985,0.9959934886,FALSE
1,35,10584,744.4444444444,838.8888888889,0.8,0.8507462687,0.9968504754,FALSE
1,36,10886,838.8888888889,1000,0.9014925373,0.9880597015,0.996524175,FALSE
1,37,11246,1000,955.5555555556,1.0746268657,1.0507462687,0.9958686323,FALSE
1,38,11590,955.5555555556,961.1111111111,1.0268656716,1.0298507463,0.9968555922,FALSE
1,39,11936,961.1111111111,977.7777777778,1.0328358209,1.0417910448,0.9955718647,FALSE
1,40,12288,977.7777777778,1008.3333333333,1.0507462687,1.0671641791,0.9983659145,FALSE
1,41,12651,1008.3333333333,975,1.0835820896,1.0656716418,0.9879261065,FALSE
1,42,13002,975,883.3333333333,1.047761194,0.9985074627,0.9772693338,FALSE
1,43,13320,883.3333333333,827.7777777778,0.9492537313,0.9194029851,0.9864440491,FALSE
1,44,13618,827.7777777778,836.1111111111,0.8895522388,0.8940298507,0.995111573,FALSE
1,45,13919,836.1111111111,861.1111111111,0.8985074627,0.9119402985,0.9945481353,FALSE
1,46,14229,861.1111111111,936.1111111111,0.9253731343,0.9656716418,0.9889593377,FALSE
1,47,14566,936.1111111111,938.8888888889,1.0059701493,1.0074626866,0.9838384583,FALSE
1,48,14904,938.8888888889,911.1111111111,1.0089552239,0.9940298507,0.9940985218,FALSE
1,49,15232,911.1111111111,916.6666666667,0.9791044776,0.9820895522,0.9959624712,FALSE
1,50,15562,916.6666666667,941.6666666667,0.9850746269,0.9985074627,0.9861366099,FALSE
1,51,15901,941.6666666667,958.3333333333,1.0119402985,1.0208955224,0.9940498736,FALSE
1,52,16246,958.3333333333,1000,1.0298507463,1.052238806,0.9950635144,FALSE
1,53,16606,1000,1091.6666666667,1.0746268657,1.123880597,0.9812504385,FALSE
1,54,16999,1091.6666666667,991.6666666667,1.1731343284,1.1194029851,0.9897970142,FALSE
1,55,17356,991.6666666667,961.1111111111,1.0656716418,1.0492537313,0.98397256,FALSE
1,56,17702,961.1111111111,902.7777777778,1.0328358209,1.0014925373,0.9960124007,FALSE
1,57,18027,902.7777777778,852.7777777778,0.9701492537,0.9432835821,0.995297156,FALSE
1,58,18334,852.7777777778,863.8888888889,0.9164179104,0.9223880597,0.9857909578,FALSE
1,59,18645,863.8888888889,888.8888888889,0.928358209,0.9417910448,0.9895440276,FALSE
1,60,18965,888.8888888889,863.8888888889,0.9552238806,0.9417910448,0.9821770742,FALSE
1,61,19276,863.8888888889,844.4444444444,0.928358209,0.9179104478,0.9874796738,FALSE
1,62,19580,844.4444444444,805.5555555556,0.9074626866,0.8865671642,0.9916294994,FALSE
1,63,19870,805.5555555556,741.6666666667,0.8656716418,0.8313432836,0.9948149654,FALSE
1,64,20137,741.6666666667,750,0.7970149254,0.8014925373,0.9841817243,FALSE
1,65,20407,750,791.6666666667,0.8059701493,0.828358209,0.9871623683,FALSE
1,66,20692,791.6666666667,825,0.8507462687,0.8686567164,0.9830930675,FALSE
1,67,20989,825,863.8888888889,0.8865671642,0.9074626866,0.969099604,FALSE
1,68,21300,863.8888888889,936.1111111111,0.928358209,0.9671641791,0.965324308,FALSE
1,69,21637,936.1111111111,1033.3333333333,1.0059701493,1.0582089552,0.956430357,FALSE
1,70,22009,1033.3333333333,988.8888888889,1.1104477612,1.0865671642,0.9877801212,FALSE
1,71,22365,988.8888888889,905.5555555556,1.0626865672,1.0179104478,0.9893850869,FALSE
1,72,22691,905.5555555556,905.5555555556,0.9731343284,0.9731343284,0.988001247,FALSE
1,73,23017,905.5555555556,966.6666666667,0.9731343284,1.0059701493,0.9860963818,FALSE
1,74,23365,966.6666666667,986.1111111111,1.0388059701,1.0492537313,0.987735756,FALSE
1,75,23720,986.1111111111,913.8888888889,1.0597014925,1.0208955224,0.9908024631,FALSE
1,76,24049,913.8888888889,872.2222222222,0.9820895522,0.9597014925,0.9935282671,FALSE
1,77,24363,872.2222222222,894.4444444444,0.9373134328,0.9492537313,0.9977682648,FALSE
1,78,24685,894.4444444444,905.5555555556,0.9611940299,0.9671641791,0.9963792024,FALSE
1,79,25011,905.5555555556,911.1111111111,0.9731343284,0.976119403,0.998019314,FALSE
1,80,25339,911.1111111111,994.4444444444,0.9791044776,1.023880597,0.9951959491,FALSE
1,81,25697,994.4444444444,1033.3333333333,1.0686567164,1.0895522388,0.9706926781,FALSE
1,82,26069,1033.3333333333,1016.6666666667,1.1104477612,1.1014925373,0.9863858977,FALSE
1,83,26435,1016.6666666667,980.5555555556,1.0925373134,1.0731343284,0.9984905332,FALSE
1,84,26788,980.5555555556,975,1.0537313433,1.0507462687,0.9960570284,FALSE
1,85,27139,975,925,1.047761194,1.0208955224,0.9975378353,FALSE
1,86,27472,925,941.6666666667,0.9940298507,1.0029850746,0.9963729037,FALSE
1,87,27811,941.6666666667,975,1.0119402985,1.0298507463,0.994363098,FALSE
1,88,28162,975,941.6666666667,1.047761194,1.0298507463,0.9948965473,FALSE
1,89,28501,941.6666666667,836.1111111111,1.0119402985,0.9552238806,0.9903205195,FALSE
1,90,28802,836.1111111111,844.4444444444,0.8985074627,0.9029850746,0.9872584199,FALSE
1,91,29106,844.4444444444,841.6666666667,0.9074626866,0.9059701493,0.9837740354,FALSE
1,92,29409,841.6666666667,844.4444444444,0.9044776119,0.9059701493,0.9933090826,FALSE
1,93,29713,844.4444444444,866.6666666667,0.9074626866,0.9194029851,0.996109444,FALSE
1,94,30025,866.6666666667,861.1111111111,0.9313432836,0.928358209,0.9864329678,FALSE
1,95,30335,861.1111111111,822.2222222222,0.9253731343,0.9044776119,0.9981681624,FALSE
1,96,30631,822.2222222222,808.3333333333,0.8835820896,0.876119403,0.9895003048,FALSE
1,97,30922,808.3333333333,747.2222222222,0.8686567164,0.8358208955,0.9912555438,FALSE
1,98,31191,747.2222222222,755.5555555556,0.8029850746,0.8074626866,0.9857641007,FALSE
1,99,31463,755.5555555556,736.1111111111,0.8119402985,0.8014925373,0.9901875645,FALSE
1,100,31728,736.1111111111,797.2222222222,0.7910447761,0.823880597,0.9713870562,FALSE
1,101,32015,797.2222222222,894.4444444444,0.8567164179,0.9089552239,0.9936944466,FALSE
1,102,32337,894.4444444444,922.2222222222,0.9611940299,0.976119403,0.9949678811,FALSE
1,103,32669,922.2222222222,552.7777777778,0.9910447761,0.7925373134,0.9849830876,FALSE
1,104,32868,552.7777777778,483.3333333333,0.5940298507,0.5567164179,0.8265308352,TRUE
1,105,33042,483.3333333333,1211.1111111111,0.5194029851,0.9104477612,0.6779084476,TRUE
1,106,33478,1211.1111111111,488.8888888889,1.3014925373,0.9134328358,0.9690421915,FALSE
1,107,33654,488.8888888889,466.6666666667,0.5253731343,0.5134328358,0.8057885658,TRUE
1,108,33822,466.6666666667,1347.2222222222,0.5014925373,0.9746268657,0.7561292228,TRUE
1,109,34307,1347.2222222222,1000,1.447761194,1.2611940299,0.9640584604,FALSE
1,110,34667,1000,530.5555555556,1.0746268657,0.8223880597,0.9914511208,FALSE
1,111,34858,530.5555555556,1177.7777777778,0.5701492537,0.9179104478,0.7891703291,TRUE
1,112,35282,1177.7777777778,519.4444444444,1.2656716418,0.9119402985,0.9895498592,FALSE
1,113,35469,519.4444444444,463.8888888889,0.5582089552,0.528358209,0.8055079208,TRUE
1,114,35636,463.8888888889,1297.2222222222,0.4985074627,0.9462686567,0.7291109782,TRUE
1,115,36103,1297.2222222222,519.4444444444,1.3940298507,0.976119403,0.9787320843,FALSE
1,116,36290,519.4444444444,1300,0.5582089552,0.9776119403,0.7411167339,TRUE
1,117,36758,1300,536.1111111111,1.3970149254,0.9865671642,0.993105176,FALSE
1,118,36951,536.1111111111,475,0.576119403,0.5432835821,0.7934996773,TRUE
1,119,37122,475,1280.5555555556,0.5104477612,0.9432835821,0.7421801945,TRUE
1,120,37583,1280.5555555556,919.4444444444,1.376119403,1.1820895522,0.9844775479,FALSE
1,121,37914,919.4444444444,497.2222222222,0.9880597015,0.7611940299,0.9977844024,FALSE
1,122,38093,497.2222222222,480.5555555556,0.5343283582,0.5253731343,0.767919896,TRUE
1,123,38266,480.5555555556,1363.8888888889,0.5164179104,0.9910447761,0.7617767379,TRUE
1,124,38757,1363.8888888889,505.5555555556,1.4656716418,1.0044776119,0.9909064084,FALSE
1,125,38939,505.5555555556,488.8888888889,0.5432835821,0.5343283582,0.7633758321,TRUE
1,126,39115,488.8888888889,1325,0.5253731343,0.9746268657,0.6301803422,TRUE
1,127,39592,1325,866.6666666667,1.423880597,1.1776119403,0.9717706409,FALSE
1,128,39904,866.6666666667,758.3333333333,0.9313432836,0.8731343284,0.9930144925,FALSE
1,129,40177,758.3333333333,213.8888888889,0.8149253731,0.5223880597,0.1559934518,TRUE
1,130,40254,213.8888888889,1283.3333333333,0.2298507463,0.8044776119,0.7417610317,TRUE
1,131,40716,1283.3333333333,883.3333333333,1.3791044776,1.1641791045,0.9963508081,FALSE
1,132,41034,883.3333333333,777.7777777778,0.9492537313,0.8925373134,0.9934206391,FALSE
1,133,41314,777.7777777778,225,0.8358208955,0.5388059701,0.1030594194,TRUE
1,134,41395,225,1230.5555555556,0.2417910448,0.7820895522,0.7531944674,TRUE
1,135,41838,1230.5555555556,463.8888888889,1.3223880597,0.9104477612,0.9985710955,FALSE
1,136,42005,463.8888888889,1211.1111111111,0.4985074627,0.9,0.8423176525,TRUE
1,137,42441,1211.1111111111,513.8888888889,1.3014925373,0.9268656716,0.9944913193,FALSE
1,138,42626,513.8888888889,480.5555555556,0.552238806,0.5343283582,0.7940824024,TRUE
1,139,42799,480.5555555556,1325,0.5164179104,0.9701492537,0.6965565391,TRUE
1,140,43276,1325,511.1111111111,1.423880597,0.9865671642,0.9903204394,FALSE
1,141,43460,511.1111111111,1241.6666666667,0.5492537313,0.9417910448,0.7381196114,TRUE
1,142,43907,1241.6666666667,744.4444444444,1.3343283582,1.0671641791,0.993050491,FALSE
1,143,44175,744.4444444444,925,0.8,0.8970149254,0.3456447788,TRUE
1,144,44508,925,513.8888888889,0.9940298507,0.7731343284,0.9957101051,FALSE
1,145,44693,513.8888888889,486.1111111111,0.552238806,0.5373134328,0.8156450952,TRUE
1,146,44868,486.1111111111,1344.4444444444,0.5223880597,0.9835820896,0.7832028329,TRUE
1,147,45352,1344.4444444444,761.1111111111,1.4447761194,1.1313432836,0.9861324507,FALSE
1,148,45626,761.1111111111,975,0.8179104478,0.9328358209,0.0026785942,TRUE
1,149,45977,975,750,1.047761194,0.9268656716,0.9916509368,FALSE
1,150,46247,750,205.5555555556,0.8059701493,0.5134328358,0.236418859,TRUE
1,151,46321,205.5555555556,1272.2222222222,0.2208955224,0.7940298507,0.7073792954,TRUE
1,152,46779,1272.2222222222,500,1.3671641791,0.952238806,0.9971680933,FALSE
1,153,46959,500,1263.8888888889,0.5373134328,0.947761194,0.8062032265,TRUE
1,154,47414,1263.8888888889,536.1111111111,1.3582089552,0.9671641791,0.9957415859,FALSE
1,155,47607,536.1111111111,483.3333333333,0.576119403,0.547761194,0.7204184446,TRUE
1,156,47781,483.3333333333,1238.8888888889,0.5194029851,0.9253731343,0.8313456592,TRUE
1,157,48227,1238.8888888889,488.8888888889,1.3313432836,0.928358209,0.9939662839,FALSE
1,158,48403,488.8888888889,455.5555555556,0.5253731343,0.5074626866,0.7567984804,TRUE
1,159,48567,455.5555555556,1233.3333333333,0.4895522388,0.9074626866,0.7466539056,TRUE
1,160,49011,1233.3333333333,752.7777777778,1.3253731343,1.0671641791,0.9903507015,FALSE
1,161,49282,752.7777777778,255.5555555556,0.8089552239,0.5417910448,0.0710345075,TRUE
1,162,49374,255.5555555556,1286.1111111111,0.2746268657,0.828358209,0.7812318446,TRUE
1,163,49837,1286.1111111111,519.4444444444,1.3820895522,0.9701492537,0.994440118,FALSE
1,164,50024,519.4444444444,1116.6666666667,0.5582089552,0.8791044776,0.8449119726,TRUE
1,165,50426,1116.6666666667,747.2222222222,1.2,1.0014925373,0.9936708702,FALSE
1,166,50695,747.2222222222,219.4444444444,0.8029850746,0.5194029851,0.2961567523,TRUE
1,167,50774,219.4444444444,1219.4444444444,0.2358208955,0.7731343284,0.7720204331,TRUE
1,168,51213,1219.4444444444,522.2222222222,1.3104477612,0.9358208955,0.9969942938,FALSE
1,169,51401,522.2222222222,1250,0.5611940299,0.952238806,0.7185280696,TRUE
1,170,51851,1250,772.2222222222,1.3432835821,1.0865671642,0.9969573282,FALSE
1,171,52129,772.2222222222,233.3333333333,0.8298507463,0.5402985075,0.1830898568,TRUE
1,172,52213,233.3333333333,1250,0.2507462687,0.7970149254,0.7601185474,TRUE
1,173,52663,1250,733.3333333333,1.3432835821,1.0656716418,0.9906266872,FALSE
1,174,52927,733.3333333333,972.2222222222,0.7880597015,0.9164179104,0.4389518766,TRUE
1,175,53277,972.2222222222,838.8888888889,1.0447761194,0.9731343284,0.9944503666,FALSE
1,176,53579,838.8888888889,822.2222222222,0.9014925373,0.8925373134,0.9978353506,FALSE
1,177,53875,822.2222222222,808.3333333333,0.8835820896,0.876119403,0.9944992975,FALSE
1,178,54166,808.3333333333,244.4444444444,0.8686567164,0.5656716418,0.0724036052,FALSE
1,179,54254,244.4444444444,1286.1111111111,0.2626865672,0.8223880597,0.8030439165,TRUE
1,180,54717,1286.1111111111,477.7777777778,1.3820895522,0.947761194,0.9955254709,FALSE
1,181,54889,477.7777777778,483.3333333333,0.5134328358,0.5164179104,0.8831546852,TRUE
1,182,55063,483.3333333333,1380.5555555556,0.5194029851,1.0014925373,0.7189981152,TRUE
1,183,55560,1380.5555555556,522.2222222222,1.4835820896,1.0223880597,0.9930769298,FALSE
1,184,55748,522.2222222222,1333.3333333333,0.5611940299,0.9970149254,0.8393994834,TRUE
1,185,56228,1333.3333333333,891.6666666667,1.4328358209,1.1955223881,0.9910523444,FALSE
1,186,56549,891.6666666667,813.8888888889,0.9582089552,0.9164179104,0.9949108172,FALSE
1,187,56842,813.8888888889,927.7777777778,0.8746268657,0.9358208955,0.9523888914,FALSE
1,188,57176,927.7777777778,888.8888888889,0.9970149254,0.976119403,0.9778927135,FALSE
1,189,57496,888.8888888889,780.5555555556,0.9552238806,0.8970149254,0.9958730495,FALSE
1,190,57777,780.5555555556,266.6666666667,0.8388059701,0.5626865672,0.0003298421,TRUE
1,191,57873,266.6666666667,1313.8888888889,0.2865671642,0.8492537313,0.738083459,TRUE
1,192,58346,1313.8888888889,525,1.4119402985,0.9880597015,0.9879784036,FALSE
1,193,58535,525,1272.2222222222,0.5641791045,0.9656716418,0.8602705644,TRUE
1,194,58993,1272.2222222222,491.6666666667,1.3671641791,0.947761194,0.9936937277,FALSE
1,195,59170,491.6666666667,447.2222222222,0.528358209,0.5044776119,0.793160733,TRUE
1,196,59331,447.2222222222,1219.4444444444,0.4805970149,0.8955223881,0.7655640667,TRUE
1,197,59770,1219.4444444444,513.8888888889,1.3104477612,0.9313432836,0.9740953289,FALSE
1,198,59955,513.8888888889,1330.5555555556,0.552238806,0.9910447761,0.8152668774,TRUE
1,199,60434,1330.5555555556,566.6666666667,1.4298507463,1.0194029851,0.9820649141,FALSE
1,200,60638,566.6666666667,1236.1111111111,0.6089552239,0.9686567164,0.7391818975,TRUE
1,201,61083,1236.1111111111,538.8888888889,1.328358209,0.9537313433,0.9788762874,FALSE
1,202,61277,538.8888888889,1261.1111111111,0.5791044776,0.9671641791,0.7489333127,TRUE
1,203,61731,1261.1111111111,1025,1.3552238806,1.228358209,0.9944568637,FALSE
1,204,62100,1025,1080.5555555556,1.1014925373,1.1313432836,0.9968252868,FALSE
1,205,62489,1080.5555555556,930.5555555556,1.1611940299,1.0805970149,0.9836826459,FALSE
1,206,62824,930.5555555556,847.2222222222,1,0.9552238806,0.9921085873,FALSE
1,207,63129,847.2222222222,1030.5555555556,0.9104477612,1.0089552239,0.9800165783,FALSE
1,208,63500,1030.5555555556,533.3333333333,1.1074626866,0.8402985075,0.9872911386,FALSE
1,209,63692,533.3333333333,475,0.5731343284,0.5417910448,0.8201053191,TRUE
1,210,63863,475,730.5555555556,0.5104477612,0.647761194,0.7640401184,TRUE
1,211,64126,730.5555555556,1230.5555555556,0.7850746269,1.0537313433,0.1612421391,TRUE
1,212,64569,1230.5555555556,550,1.3223880597,0.9567164179,0.9792700918,FALSE
1,213,64767,550,1447.2222222222,0.5910447761,1.0731343284,0.8322981222,TRUE
1,214,65288,1447.2222222222,1158.3333333333,1.5552238806,1.4,0.9928323752,FALSE
1,215,65705,1158.3333333333,1111.1111111111,1.2447761194,1.2194029851,0.9636775097,FALSE
1,216,66105,1111.1111111111,1061.1111111111,1.1940298507,1.1671641791,0.9839221327,FALSE
1,217,66487,1061.1111111111,1111.1111111111,1.1402985075,1.1671641791,0.9908110317,FALSE
1,218,66887,1111.1111111111,1155.5555555556,1.1940298507,1.2179104478,0.9940881304,FALSE
1,219,67303,1155.5555555556,1111.1111111111,1.2417910448,1.2179104478,0.9937662797,FALSE
1,220,67703,1111.1111111111,1091.6666666667,1.1940298507,1.1835820896,0.9968847893,FALSE
1,221,68096,1091.6666666667,1025,1.1731343284,1.1373134328,0.995817888,FALSE
1,222,68465,1025,1127.7777777778,1.1014925373,1.1567164179,0.9977362979,FALSE
1,223,68871,1127.7777777778,1113.8888888889,1.2119402985,1.2044776119,0.9944670368,FALSE
1,224,69272,1113.8888888889,1013.8888888889,1.1970149254,1.1432835821,0.9739486577,FALSE
1,225,69637,1013.8888888889,913.8888888889,1.0895522388,1.0358208955,0.9939953614,FALSE
1,226,69966,913.8888888889,877.7777777778,0.9820895522,0.9626865672,0.9958020821,FALSE
1,227,70282,877.7777777778,938.8888888889,0.9432835821,0.976119403,0.9982010502,FALSE
1,228,70620,938.8888888889,1055.5555555556,1.0089552239,1.071641791,0.995562067,FALSE
1,229,71000,1055.5555555556,1136.1111111111,1.1343283582,1.1776119403,0.9907914225,FALSE
1,230,71409,1136.1111111111,1133.3333333333,1.2208955224,1.2194029851,0.980432723,FALSE
1,231,71817,1133.3333333333,1047.2222222222,1.2179104478,1.171641791,0.9892037391,FALSE
1,232,72194,1047.2222222222,1019.4444444444,1.1253731343,1.1104477612,0.9950300453,FALSE
1,233,72561,1019.4444444444,1072.2222222222,1.0955223881,1.123880597,0.9810258244,FALSE
1,234,72947,1072.2222222222,1086.1111111111,1.152238806,1.1597014925,0.9829598443,FALSE
1,235,73338,1086.1111111111,1091.6666666667,1.1671641791,1.1701492537,0.9851857145,FALSE
1,236,73731,1091.6666666667,991.6666666667,1.1731343284,1.1194029851,0.9962662369,FALSE
1,237,74088,991.6666666667,891.6666666667,1.0656716418,1.0119402985,0.9919881467,FALSE
1,238,74409,891.6666666667,930.5555555556,0.9582089552,0.9791044776,0.9896563944,FALSE
1,239,74744,930.5555555556,1100,1,1.0910447761,0.9827082978,FALSE
1,240,75140,1100,1044.4444444444,1.1820895522,1.152238806,0.9934685132,FALSE
1,241,75516,1044.4444444444,1091.6666666667,1.1223880597,1.147761194,0.9911242939,FALSE
1,242,75909,1091.6666666667,1055.5555555556,1.1731343284,1.1537313433,0.9850493767,FALSE
1,243,76289,1055.5555555556,1063.8888888889,1.1343283582,1.1388059701,0.9801476783,FALSE
1,244,76672,1063.8888888889,980.5555555556,1.1432835821,1.0985074627,0.9777391607,FALSE
1,245,77025,980.5555555556,1047.2222222222,1.0537313433,1.0895522388,0.9938997105,FALSE
1,246,77402,1047.2222222222,1027.7777777778,1.1253731343,1.1149253731,0.9884552181,FALSE
1,247,77772,1027.7777777778,1072.2222222222,1.1044776119,1.128358209,0.9914187318,FALSE
1,248,78158,1072.2222222222,955.5555555556,1.152238806,1.0895522388,0.9687222412,FALSE
1,249,78502,955.5555555556,988.8888888889,1.0268656716,1.0447761194,0.9723603045,FALSE
1,250,78858,988.8888888889,1122.2222222222,1.0626865672,1.1343283582,0.9910099264,FALSE
1,251,79262,1122.2222222222,1080.5555555556,1.2059701493,1.1835820896,0.9945145024,FALSE
1,252,79651,1080.5555555556,1063.8888888889,1.1611940299,1.152238806,0.9928298825,FALSE
1,253,80034,1063.8888888889,947.2222222222,1.1432835821,1.0805970149,0.9923594776,FALSE
1,254,80375,947.2222222222,866.6666666667,1.0179104478,0.9746268657,0.9952273598,FALSE
1,255,80687,866.6666666667,927.7777777778,0.9313432836,0.9641791045,0.992769594,FALSE
1,256,81021,927.7777777778,1030.5555555556,0.9970149254,1.052238806,0.9760958729,FALSE
1,257,81392,1030.5555555556,1150,1.1074626866,1.171641791,0.981758764,FALSE
1,258,81806,1150,1136.1111111111,1.2358208955,1.228358209,0.9914034126,FALSE
1,259,82215,1136.1111111111,1033.3333333333,1.2208955224,1.1656716418,0.9892198874,FALSE
1,260,82587,1033.3333333333,997.2222222222,1.1104477612,1.0910447761,0.9865106689,FALSE
1,261,82946,997.2222222222,1005.5555555556,1.071641791,1.076119403,0.9738017847,FALSE
1,262,83308,1005.5555555556,991.6666666667,1.0805970149,1.0731343284,0.9907357337,FALSE
1,263,83665,991.6666666667,1030.5555555556,1.0656716418,1.0865671642,0.9922501757,FALSE
1,264,84036,1030.5555555556,1113.8888888889,1.1074626866,1.152238806,0.9950142692,FALSE
1,265,84437,1113.8888888889,1113.8888888889,1.1970149254,1.1970149254,0.9875233016,FALSE
1,266,84838,1113.8888888889,1044.4444444444,1.1970149254,1.1597014925,0.9835039195,FALSE
1,267,85214,1044.4444444444,1075,1.1223880597,1.1388059701,0.9919102743,FALSE
1,268,85601,1075,1144.4444444444,1.1552238806,1.1925373134,0.9952029208,FALSE
1,269,86013,1144.4444444444,1025,1.2298507463,1.1656716418,0.9553912688,FALSE
1,270,86382,1025,1041.6666666667,1.1014925373,1.1104477612,0.9907528763,FALSE
1,271,86757,1041.6666666667,1047.2222222222,1.1194029851,1.1223880597,0.9846968278,FALSE
1,272,87134,1047.2222222222,1038.8888888889,1.1253731343,1.1208955224,0.9663479156,FALSE
1,273,87508,1038.8888888889,1061.1111111111,1.1164179104,1.128358209,0.9900535303,FALSE
1,274,87890,1061.1111111111,1138.8888888889,1.1402985075,1.1820895522,0.9945275024,FALSE
1,275,88300,1138.8888888889,1144.4444444444,1.223880597,1.2268656716,0.9873527689,FALSE
1,276,88712,1144.4444444444,1072.2222222222,1.2298507463,1.1910447761,0.9941010309,FALSE
1,277,89098,1072.2222222222,927.7777777778,1.152238806,1.0746268657,0.9861079754,FALSE
1,278,89432,927.7777777778,863.8888888889,0.9970149254,0.9626865672,0.9879782666,FALSE
1,279,89743,863.8888888889,875,0.928358209,0.9343283582,0.9888525701,FALSE
1,280,90058,875,947.2222222222,0.9402985075,0.9791044776,0.9882063035,FALSE
1,281,90399,947.2222222222,1052.7777777778,1.0179104478,1.0746268657,0.9847384261,FALSE
1,282,90778,1052.7777777778,991.6666666667,1.1313432836,1.0985074627,0.9915913647,FALSE
1,283,91135,991.6666666667,891.6666666667,1.0656716418,1.0119402985,0.9809614402,FALSE
1,284,91456,891.6666666667,830.5555555556,0.9582089552,0.9253731343,0.9910757334,FALSE
1,285,91755,830.5555555556,811.1111111111,0.8925373134,0.8820895522,0.9792358103,FALSE
1,286,92047,811.1111111111,830.5555555556,0.871641791,0.8820895522,0.9908566837,FALSE
1,287,92346,830.5555555556,872.2222222222,0.8925373134,0.9149253731,0.9955988011,FALSE
1,288,92660,872.2222222222,988.8888888889,0.9373134328,1,0.9902964467,FALSE
1,289,93016,988.8888888889,1052.7777777778,1.0626865672,1.0970149254,0.9941326493,FALSE
1,290,93395,1052.7777777778,886.1111111111,1.1313432836,1.0417910448,0.9745937008,FALSE
1,291,93714,886.1111111111,891.6666666667,0.952238806,0.9552238806,0.9938088912,FALSE
1,292,94035,891.6666666667,950,0.9582089552,0.9895522388,0.9936745367,FALSE
1,293,94377,950,947.2222222222,1.0208955224,1.0194029851,0.9759254807,FALSE
1,294,94718,947.2222222222,902.7777777778,1.0179104478,0.9940298507,0.9832244658,FALSE
1,295,95043,902.7777777778,941.6666666667,0.9701492537,0.9910447761,0.9861460453,FALSE
1,296,95382,941.6666666667,933.3333333333,1.0119402985,1.0074626866,0.9836102092,FALSE
1,297,95718,933.3333333333,522.2222222222,1.0029850746,0.7820895522,0.9797318236,FALSE
1,298,95906,522.2222222222,1194.4444444444,0.5611940299,0.9223880597,0.7879406371,TRUE
1,299,96336,1194.4444444444,911.1111111111,1.2835820896,1.1313432836,0.9874215668,FALSE
1,300,96664,911.1111111111,961.1111111111,0.9791044776,1.0059701493,0.9923183056,FALSE
1,301,97010,961.1111111111,894.4444444444,1.0328358209,0.9970149254,0.9935339555,FALSE
1,302,97332,894.4444444444,800,0.9611940299,0.9104477612,0.9968289174,FALSE
1,303,97620,800,805.5555555556,0.8597014925,0.8626865672,0.9710310527,FALSE
1,304,97910,805.5555555556,855.5555555556,0.8656716418,0.8925373134,0.9946073632,FALSE
1,305,98218,855.5555555556,822.2222222222,0.9194029851,0.9014925373,0.99346371,FALSE
1,306,98514,822.2222222222,850,0.8835820896,0.8985074627,0.989466188,FALSE
1,307,98820,850,875,0.9134328358,0.9268656716,0.9739091286,FALSE
1,308,99135,875,936.1111111111,0.9402985075,0.9731343284,0.9802152585,FALSE
1,309,99472,936.1111111111,933.3333333333,1.0059701493,1.0044776119,0.992142106,FALSE
1,310,99808,933.3333333333,863.8888888889,1.0029850746,0.9656716418,0.9817032027,FALSE
1,311,100119,863.8888888889,900,0.928358209,0.947761194,0.9942910905,FALSE
1,312,100443,900,958.3333333333,0.9671641791,0.9985074627,0.9921251371,FALSE
1,313,100788,958.3333333333,1005.5555555556,1.0298507463,1.0552238806,0.9405669927,FALSE
1,314,101150,1005.5555555556,1025,1.0805970149,1.0910447761,0.9886497413,FALSE
1,315,101519,1025,1013.8888888889,1.1014925373,1.0955223881,0.9816370873,FALSE
1,316,101884,1013.8888888889,961.1111111111,1.0895522388,1.0611940299,0.9935238488,FALSE
1,317,102230,961.1111111111,913.8888888889,1.0328358209,1.0074626866,0.9935756659,FALSE
1,318,102559,913.8888888889,975,0.9820895522,1.0149253731,0.9617576307,FALSE
1,319,102910,975,1086.1111111111,1.047761194,1.1074626866,0.9791978336,FALSE
1,320,103301,1086.1111111111,1019.4444444444,1.1671641791,1.1313432836,0.9673205558,FALSE
1,321,103668,1019.4444444444,1041.6666666667,1.0955223881,1.1074626866,0.9865597023,FALSE
1,322,104043,1041.6666666667,1019.4444444444,1.1194029851,1.1074626866,0.9842630354,FALSE
1,323,104410,1019.4444444444,1022.2222222222,1.0955223881,1.0970149254,0.9852270126,FALSE
1,324,104778,1022.2222222222,961.1111111111,1.0985074627,1.0656716418,0.9636648937,FALSE
1,325,105124,961.1111111111,1052.7777777778,1.0328358209,1.0820895522,0.9892270718,FALSE
1,326,105503,1052.7777777778,1100,1.1313432836,1.1567164179,0.9622201075,FALSE
1,327,105899,1100,1080.5555555556,1.1820895522,1.171641791,0.9906736182,FALSE
1,328,106288,1080.5555555556,955.5555555556,1.1611940299,1.0940298507,0.9742608088,FALSE
1,329,106632,955.5555555556,961.1111111111,1.0268656716,1.0298507463,0.9970786977,FALSE
1,330,106978,961.1111111111,1080.5555555556,1.0328358209,1.0970149254,0.9915885368,FALSE
1,331,107367,1080.5555555556,1138.8888888889,1.1611940299,1.1925373134,0.9841648471,FALSE
1,332,107777,1138.8888888889,1050,1.223880597,1.176119403,0.9895917634,FALSE
1,333,108155,1050,1063.8888888889,1.128358209,1.1358208955,0.9859432835,FALSE
1,334,108538,1063.8888888889,1066.6666666667,1.1432835821,1.1447761194,0.9921437561,FALSE
1,335,108922,1066.6666666667,1022.2222222222,1.1462686567,1.1223880597,0.9889821719,FALSE
1,336,109290,1022.2222222222,1052.7777777778,1.0985074627,1.1149253731,0.9876438322,FALSE
1,337,109669,1052.7777777778,1097.2222222222,1.1313432836,1.1552238806,0.9779736016,FALSE
1,338,110064,1097.2222222222,1025,1.1791044776,1.1402985075,0.9618636441,FALSE
1,339,110433,1025,988.8888888889,1.1014925373,1.0820895522,0.9930488951,FALSE
1,340,110789,988.8888888889,966.6666666667,1.0626865672,1.0507462687,0.9885316021,FALSE
1,341,111137,966.6666666667,927.7777777778,1.0388059701,1.0179104478,0.9923392926,FALSE
1,342,111471,927.7777777778,1008.3333333333,0.9970149254,1.0402985075,0.997068314,FALSE
1,343,111834,1008.3333333333,1094.4444444444,1.0835820896,1.1298507463,0.9888956023,FALSE
1,344,112228,1094.4444444444,1077.7777777778,1.176119403,1.1671641791,0.9895481763,FALSE
1,345,112616,1077.7777777778,944.4444444444,1.1582089552,1.0865671642,0.9730900652,FALSE
1,346,112956,944.4444444444,969.4444444444,1.0149253731,1.028358209,0.982407953,FALSE
1,347,113305,969.4444444444,1022.2222222222,1.0417910448,1.0701492537,0.9628876778,FALSE
1,348,113673,1022.2222222222,1075,1.0985074627,1.1268656716,0.9944338349,FALSE
1,349,114060,1075,955.5555555556,1.1552238806,1.0910447761,0.9945367702,FALSE
1,350,114404,955.5555555556,930.5555555556,1.0268656716,1.0134328358,0.9808402987,FALSE
1,351,114739,930.5555555556,955.5555555556,1,1.0134328358,0.9894008722,FALSE
1,352,115083,955.5555555556,961.1111111111,1.0268656716,1.0298507463,0.9898449921,FALSE
1,353,115429,961.1111111111,933.3333333333,1.0328358209,1.0179104478,0.9886943085,FALSE
1,354,115765,933.3333333333,991.6666666667,1.0029850746,1.0343283582,0.992939963,FALSE
1,355,116122,991.6666666667,1138.8888888889,1.0656716418,1.1447761194,0.9719876774,FALSE
1,356,116532,1138.8888888889,1050,1.223880597,1.176119403,0.9635912064,FALSE
1,357,116910,1050,1027.7777777778,1.128358209,1.1164179104,0.9916688725,FALSE
1,358,117280,1027.7777777778,1036.1111111111,1.1044776119,1.1089552239,0.9924835459,FALSE
1,359,117653,1036.1111111111,938.8888888889,1.1134328358,1.0611940299,0.9933418883,FALSE
1,360,117991,938.8888888889,1036.1111111111,1.0089552239,1.0611940299,0.9932122835,FALSE
1,361,118364,1036.1111111111,1097.2222222222,1.1134328358,1.1462686567,0.9786974317,FALSE
1,362,118759,1097.2222222222,1061.1111111111,1.1791044776,1.1597014925,0.9669409485,FALSE
1,363,119141,1061.1111111111,958.3333333333,1.1402985075,1.0850746269,0.9858325922,FALSE
1,364,119486,958.3333333333,1013.8888888889,1.0298507463,1.0597014925,0.9916274949,FALSE
1,365,119851,1013.8888888889,1036.1111111111,1.0895522388,1.1014925373,0.9895481612,FALSE
1,366,120224,1036.1111111111,1055.5555555556,1.1134328358,1.123880597,0.9862780851,FALSE
1,367,120604,1055.5555555556,1116.6666666667,1.1343283582,1.1671641791,0.9932079812,FALSE
1,368,121006,1116.6666666667,1102.7777777778,1.2,1.1925373134,0.9788823744,FALSE
1,369,121403,1102.7777777778,1019.4444444444,1.1850746269,1.1402985075,0.9903865236,FALSE
1,370,121770,1019.4444444444,969.4444444444,1.0955223881,1.0686567164,0.9686595267,FALSE
1,371,122119,969.4444444444,980.5555555556,1.0417910448,1.047761194,0.9543894935,FALSE
1,372,122472,980.5555555556,941.6666666667,1.0537313433,1.0328358209,0.9866626721,FALSE
1,373,122811,941.6666666667,911.1111111111,1.0119402985,0.9955223881,0.9865230447,FALSE
1,374,123139,911.1111111111,961.1111111111,0.9791044776,1.0059701493,0.9841823098,FALSE
1,375,123485,961.1111111111,1108.3333333333,1.0328358209,1.1119402985,0.982988002,FALSE
1,376,123884,1108.3333333333,1013.8888888889,1.1910447761,1.1402985075,0.9897885001,FALSE
1,377,124249,1013.8888888889,1102.7777777778,1.0895522388,1.1373134328,0.9925402036,FALSE
1,378,124646,1102.7777777778,1075,1.1850746269,1.1701492537,0.9920398406,FALSE
1,379,125033,1075,1066.6666666667,1.1552238806,1.1507462687,0.98685799,FALSE
1,380,125417,1066.6666666667,1033.3333333333,1.1462686567,1.128358209,0.9854670122,FALSE
1,381,125789,1033.3333333333,908.3333333333,1.1104477612,1.0432835821,0.9857528,FALSE
1,382,126116,908.3333333333,933.3333333333,0.976119403,0.9895522388,0.960115084,FALSE
1,383,126452,933.3333333333,1002.7777777778,1.0029850746,1.0402985075,0.9446786601,FALSE
1,384,126813,1002.7777777778,988.8888888889,1.0776119403,1.0701492537,0.9886890355,FALSE
1,385,127169,988.8888888889,1100,1.0626865672,1.1223880597,0.9892847836,FALSE
1,386,127565,1100,1086.1111111111,1.1820895522,1.1746268657,0.979060319,FALSE
1,387,127956,1086.1111111111,986.1111111111,1.1671641791,1.1134328358,0.9915327581,FALSE
1,388,128311,986.1111111111,1019.4444444444,1.0597014925,1.0776119403,0.9894490215,FALSE
1,389,128678,1019.4444444444,1033.3333333333,1.0955223881,1.1029850746,0.9820709103,FALSE
1,390,129050,1033.3333333333,1105.5555555556,1.1104477612,1.1492537313,0.9886948074,FALSE
1,391,129448,1105.5555555556,1033.3333333333,1.1880597015,1.1492537313,0.9611514134,FALSE
1,392,129820,1033.3333333333,1013.8888888889,1.1104477612,1.1,0.9778799466,FALSE
1,393,130185,1013.8888888889,986.1111111111,1.0895522388,1.0746268657,0.9867153232,FALSE
1,394,130540,986.1111111111,925,1.0597014925,1.0268656716,0.9819858597,FALSE
1,395,130873,925,1002.7777777778,0.9940298507,1.0358208955,0.9813292339,FALSE
1,396,131234,1002.7777777778,1108.3333333333,1.0776119403,1.1343283582,0.9802791765,FALSE
1,397,131633,1108.3333333333,1055.5555555556,1.1910447761,1.1626865672,0.9924900983,FALSE
1,398,132013,1055.5555555556,1027.7777777778,1.1343283582,1.1194029851,0.9923091263,FALSE
1,399,132383,1027.7777777778,944.4444444444,1.1044776119,1.0597014925,0.973870993,FALSE
1,400,132723,944.4444444444,988.8888888889,1.0149253731,1.0388059701,0.9905862593,FALSE
1,401,133079,988.8888888889,1077.7777777778,1.0626865672,1.1104477612,0.9750747808,FALSE
1,402,133467,1077.7777777778,1025,1.1582089552,1.1298507463,0.9892052142,FALSE
1,403,133836,1025,1033.3333333333,1.1014925373,1.1059701493,0.992980432,FALSE
1,404,134208,1033.3333333333,1005.5555555556,1.1104477612,1.0955223881,0.9894966955,FALSE
1,405,134570,1005.5555555556,930.5555555556,1.0805970149,1.0402985075,0.991809286,FALSE
1,406,134905,930.5555555556,963.8888888889,1,1.0179104478,0.988650153,FALSE
1,407,135252,963.8888888889,1013.8888888889,1.0358208955,1.0626865672,0.9740045283,FALSE
1,408,135617,1013.8888888889,1002.7777777778,1.0895522388,1.0835820896,0.9941668513,FALSE
1,409,135978,1002.7777777778,1047.2222222222,1.0776119403,1.1014925373,0.9641823064,FALSE
1,410,136355,1047.2222222222,1025,1.1253731343,1.1134328358,0.9880434348,FALSE
1,411,136724,1025,930.5555555556,1.1014925373,1.0507462687,0.9606099035,FALSE
1,412,137059,930.5555555556,966.6666666667,1,1.0194029851,0.9776925756,FALSE
1,413,137407,966.6666666667,975,1.0388059701,1.0432835821,0.9951751439,FALSE
1,414,137758,975,952.7777777778,1.047761194,1.0358208955,0.9774753147,FALSE
1,415,138101,952.7777777778,1002.7777777778,1.023880597,1.0507462687,0.9968017249,FALSE
1,416,138462,1002.7777777778,991.6666666667,1.0776119403,1.071641791,0.9878879743,FALSE
1,417,138819,991.6666666667,986.1111111111,1.0656716418,1.0626865672,0.9736707515,FALSE
1,418,139174,986.1111111111,991.6666666667,1.0597014925,1.0626865672,0.9920239683,FALSE
1,419,139531,991.6666666667,958.3333333333,1.0656716418,1.047761194,0.991265242,FALSE
1,420,139876,958.3333333333,1005.5555555556,1.0298507463,1.0552238806,0.9732495062,FALSE
1,421,140238,1005.5555555556,933.3333333333,1.0805970149,1.0417910448,0.9824711587,FALSE
1,422,140574,933.3333333333,963.8888888889,1.0029850746,1.0194029851,0.9850446323,FALSE
1,423,140921,963.8888888889,994.4444444444,1.0358208955,1.052238806,0.9683285789,FALSE
1,424,141279,994.4444444444,1002.7777777778,1.0686567164,1.0731343284,0.9924916394,FALSE
1,425,141640,1002.7777777778,930.5555555556,1.0776119403,1.0388059701,0.9853901414,FALSE
1,426,141975,930.5555555556,1005.5555555556,1,1.0402985075,0.9764171947,FALSE
1,427,142337,1005.5555555556,1047.2222222222,1.0805970149,1.1029850746,0.989103805,FALSE
1,428,142714,1047.2222222222,991.6666666667,1.1253731343,1.0955223881,0.9876552007,FALSE
1,429,143071,991.6666666667,908.3333333333,1.0656716418,1.0208955224,0.9921619094,FALSE
1,430,143398,908.3333333333,863.8888888889,0.976119403,0.952238806,0.9763682338,FALSE
1,431,143709,863.8888888889,908.3333333333,0.928358209,0.952238806,0.9851902741,FALSE
1,432,144036,908.3333333333,888.8888888889,0.976119403,0.9656716418,0.9787116259,FALSE
1,433,144356,888.8888888889,902.7777777778,0.9552238806,0.9626865672,0.9878224852,FALSE
1,434,144681,902.7777777778,858.3333333333,0.9701492537,0.9462686567,0.9751915091,FALSE
1,435,144990,858.3333333333,908.3333333333,0.9223880597,0.9492537313,0.9854738078,FALSE
1,436,145317,908.3333333333,1030.5555555556,0.976119403,1.0417910448,0.9788433653,FALSE
1,437,145688,1030.5555555556,1050,1.1074626866,1.1179104478,0.9884145855,FALSE
1,438,146066,1050,1077.7777777778,1.128358209,1.1432835821,0.972334296,FALSE
1,439,146454,1077.7777777778,1030.5555555556,1.1582089552,1.1328358209,0.9783860486,FALSE
1,440,146825,1030.5555555556,1025,1.1074626866,1.1044776119,0.9835729547,FALSE
1,441,147194,1025,958.3333333333,1.1014925373,1.0656716418,0.9859021222,FALSE
1,442,147539,958.3333333333,930.5555555556,1.0298507463,1.0149253731,0.951567688,FALSE
1,443,147874,930.5555555556,886.1111111111,1,0.976119403,0.9914345705,FALSE
1,444,148193,886.1111111111,913.8888888889,0.952238806,0.9671641791,0.9925924177,FALSE
1,445,148522,913.8888888889,1019.4444444444,0.9820895522,1.0388059701,0.9712480012,FALSE
1,446,148889,1019.4444444444,1150,1.0955223881,1.1656716418,0.95883697,FALSE
1,447,149303,1150,1069.4444444444,1.2358208955,1.1925373134,0.9904164736,FALSE
1,448,149688,1069.4444444444,961.1111111111,1.1492537313,1.0910447761,0.9780698361,FALSE
1,449,150034,961.1111111111,980.5555555556,1.0328358209,1.0432835821,0.9782987328,FALSE
1,450,150387,980.5555555556,1094.4444444444,1.0537313433,1.1149253731,0.9911151637,FALSE
1,451,150781,1094.4444444444,1108.3333333333,1.176119403,1.1835820896,0.989172486,FALSE
1,452,151180,1108.3333333333,1097.2222222222,1.1910447761,1.1850746269,0.9892992453,FALSE
1,453,151575,1097.2222222222,991.6666666667,1.1791044776,1.1223880597,0.9918013077,FALSE
1,454,151932,991.6666666667,991.6666666667,1.0656716418,1.0656716418,0.9057719455,FALSE
1,455,152289,991.6666666667,1047.2222222222,1.0656716418,1.0955223881,0.989811161,FALSE
1,456,152666,1047.2222222222,1077.7777777778,1.1253731343,1.1417910448,0.9892209053,FALSE
1,457,153054,1077.7777777778,1050,1.1582089552,1.1432835821,0.988664405,FALSE
1,458,153432,1050,986.1111111111,1.128358209,1.0940298507,0.9768040857,FALSE
1,459,153787,986.1111111111,841.6666666667,1.0597014925,0.9820895522,0.9938778842,FALSE
1,460,154090,841.6666666667,811.1111111111,0.9044776119,0.8880597015,0.9822476655,FALSE
1,461,154382,811.1111111111,841.6666666667,0.871641791,0.8880597015,0.9868183458,FALSE
1,462,154685,841.6666666667,894.4444444444,0.9044776119,0.9328358209,0.9899349817,FALSE
1,463,155007,894.4444444444,872.2222222222,0.9611940299,0.9492537313,0.991313238,FALSE
1,464,155321,872.2222222222,872.2222222222,0.9373134328,0.9373134328,0.9881619773,FALSE
1,465,155635,872.2222222222,852.7777777778,0.9373134328,0.9268656716,0.9907355439,FALSE
1,466,155942,852.7777777778,797.2222222222,0.9164179104,0.8865671642,0.9777646892,FALSE
1,467,156229,797.2222222222,752.7777777778,0.8567164179,0.8328358209,0.9895325309,FALSE
1,468,156500,752.7777777778,761.1111111111,0.8089552239,0.8134328358,0.9913640955,FALSE
1,469,156774,761.1111111111,777.7777777778,0.8179104478,0.8268656716,0.9834025912,FALSE
1,470,157054,777.7777777778,797.2222222222,0.8358208955,0.8462686567,0.9750222746,FALSE
1,471,157341,797.2222222222,769.4444444444,0.8567164179,0.8417910448,0.9947590635,FALSE
1,472,157618,769.4444444444,775,0.8268656716,0.8298507463,0.9891438887,FALSE
1,473,157897,775,763.8888888889,0.8328358209,0.8268656716,0.9837210752,FALSE
1,474,158172,763.8888888889,730.5555555556,0.8208955224,0.8029850746,0.9877619724,FALSE
1,475,158435,730.5555555556,713.8888888889,0.7850746269,0.776119403,0.9798514679,FALSE
1,476,158692,713.8888888889,686.1111111111,0.7671641791,0.752238806,0.9826814081,FALSE
1,477,158939,686.1111111111,733.3333333333,0.7373134328,0.7626865672,0.9890513375,FALSE
1,478,159203,733.3333333333,783.3333333333,0.7880597015,0.8149253731,0.9967861768,FALSE
1,479,159485,783.3333333333,836.1111111111,0.8417910448,0.8701492537,0.9868926484,FALSE
1,480,159786,836.1111111111,936.1111111111,0.8985074627,0.952238806,0.9922712046,FALSE
1,481,160123,936.1111111111,1000,1.0059701493,1.0402985075,0.9936715115,FALSE
1,482,160483,1000,480.5555555556,1.0746268657,0.7955223881,0.9932155609,FALSE
1,483,160656,480.5555555556,1166.6666666667,0.5164179104,0.8850746269,0.795141054,TRUE
1,484,161076,1166.6666666667,947.2222222222,1.2537313433,1.1358208955,0.9812109074,FALSE
1,485,161417,947.2222222222,927.7777777778,1.0179104478,1.0074626866,0.9892319997,FALSE
1,486,161751,927.7777777778,905.5555555556,0.9970149254,0.9850746269,0.9952219636,FALSE
1,487,162077,905.5555555556,969.4444444444,0.9731343284,1.0074626866,0.9936922579,FALSE
1,488,162426,969.4444444444,983.3333333333,1.0417910448,1.0492537313,0.9864205609,FALSE
1,489,162780,983.3333333333,491.6666666667,1.0567164179,0.7925373134,0.983929395,FALSE
1,490,162957,491.6666666667,1147.2222222222,0.528358209,0.8805970149,0.8064307023,TRUE
1,491,163370,1147.2222222222,941.6666666667,1.2328358209,1.1223880597,0.9885797186,FALSE
1,492,163709,941.6666666667,1002.7777777778,1.0119402985,1.0447761194,0.9856019834,FALSE
1,493,164070,1002.7777777778,961.1111111111,1.0776119403,1.0552238806,0.9926249974,FALSE
1,494,164416,961.1111111111,891.6666666667,1.0328358209,0.9955223881,0.9920471576,FALSE
1,495,164737,891.6666666667,905.5555555556,0.9582089552,0.9656716418,0.9904344664,FALSE
1,496,165063,905.5555555556,947.2222222222,0.9731343284,0.9955223881,0.9846889778,FALSE
1,497,165404,947.2222222222,975,1.0179104478,1.0328358209,0.9844569162,FALSE
1,498,165755,975,961.1111111111,1.047761194,1.0402985075,0.9808550449,FALSE
1,499,166101,961.1111111111,888.8888888889,1.0328358209,0.9940298507,0.9939871761,FALSE
1,500,166421,888.8888888889,847.2222222222,0.9552238806,0.9328358209,0.9910715026,FALSE
1,501,166726,847.2222222222,844.4444444444,0.9104477612,0.9089552239,0.991527329,FALSE
1,502,167030,844.4444444444,922.2222222222,0.9074626866,0.9492537313,0.9843840996,FALSE
1,503,167362,922.2222222222,930.5555555556,0.9910447761,0.9955223881,0.9837768869,FALSE
1,504,167697,930.5555555556,955.5555555556,1,1.0134328358,0.9939661226,FALSE
1,505,168041,955.5555555556,1002.7777777778,1.0268656716,1.052238806,0.993402734,FALSE
1,506,168402,1002.7777777778,1025,1.0776119403,1.0895522388,0.9947136187,FALSE
1,507,168771,1025,947.2222222222,1.1014925373,1.0597014925,0.9936475408,FALSE
1,508,169112,947.2222222222,905.5555555556,1.0179104478,0.9955223881,0.9718647283,FALSE
1,509,169438,905.5555555556,888.8888888889,0.9731343284,0.9641791045,0.9830657501,FALSE
1,510,169758,888.8888888889,927.7777777778,0.9552238806,0.976119403,0.9908963868,FALSE
1,511,170092,927.7777777778,1041.6666666667,0.9970149254,1.0582089552,0.9939860511,FALSE
1,512,170467,1041.6666666667,997.2222222222,1.1194029851,1.0955223881,0.9955005814,FALSE
1,513,170826,997.2222222222,922.2222222222,1.071641791,1.0313432836,0.9955402636,FALSE
1,514,171158,922.2222222222,908.3333333333,0.9910447761,0.9835820896,0.9647257703,FALSE
1,515,171485,908.3333333333,961.1111111111,0.976119403,1.0044776119,0.9935689922,FALSE
1,516,171831,961.1111111111,1027.7777777778,1.0328358209,1.0686567164,0.9889588992,FALSE
1,517,172201,1027.7777777778,1008.3333333333,1.1044776119,1.0940298507,0.9770361766,FALSE
1,518,172564,1008.3333333333,961.1111111111,1.0835820896,1.0582089552,0.9968945969,FALSE
1,519,172910,961.1111111111,969.4444444444,1.0328358209,1.0373134328,0.9939640784,FALSE
1,520,173259,969.4444444444,947.2222222222,1.0417910448,1.0298507463,0.9923437893,FALSE
1,521,173600,947.2222222222,888.8888888889,1.0179104478,0.9865671642,0.9902110996,FALSE
1,522,173920,888.8888888889,875,0.9552238806,0.947761194,0.9855943504,FALSE
1,523,174235,875,900,0.9402985075,0.9537313433,0.9936174689,FALSE
1,524,174559,900,916.6666666667,0.9671641791,0.976119403,0.9924882915,FALSE
1,525,174889,916.6666666667,830.5555555556,0.9850746269,0.9388059701,0.9956109973,FALSE
1,526,175188,830.5555555556,841.6666666667,0.8925373134,0.8985074627,0.9911382587,FALSE
1,527,175491,841.6666666667,811.1111111111,0.9044776119,0.8880597015,0.9929053381,FALSE
1,528,175783,811.1111111111,800,0.871641791,0.8656716418,0.9697571646,FALSE
1,529,176071,800,869.4444444444,0.8597014925,0.8970149254,0.9842925494,FALSE
1,530,176384,869.4444444444,880.5555555556,0.9343283582,0.9402985075,0.9949171446,FALSE
1,531,176701,880.5555555556,877.7777777778,0.9462686567,0.9447761194,0.9965823742,FALSE
1,532,177017,877.7777777778,872.2222222222,0.9432835821,0.9402985075,0.9964663128,FALSE
1,533,177331,872.2222222222,797.2222222222,0.9373134328,0.8970149254,0.995980099,FALSE
1,534,177618,797.2222222222,752.7777777778,0.8567164179,0.8328358209,0.9957369669,FALSE
1,535,177889,752.7777777778,827.7777777778,0.8089552239,0.8492537313,0.993209795,FALSE
1,536,178187,827.7777777778,858.3333333333,0.8895522388,0.9059701493,0.9940899444,FALSE
1,537,178496,858.3333333333,938.8888888889,0.9223880597,0.9656716418,0.9951565725,FALSE
1,538,178834,938.8888888889,958.3333333333,1.0089552239,1.0194029851,0.9947354972,FALSE
1,539,179179,958.3333333333,900,1.0298507463,0.9985074627,0.9968755129,FALSE
1,540,179503,900,855.5555555556,0.9671641791,0.9432835821,0.9957775383,FALSE
1,541,179811,855.5555555556,866.6666666667,0.9194029851,0.9253731343,0.9914480723,FALSE
1,542,180123,866.6666666667,888.8888888889,0.9313432836,0.9432835821,0.9882292743,FALSE
1,543,180443,888.8888888889,941.6666666667,0.9552238806,0.9835820896,0.9961227388,FALSE
1,544,180782,941.6666666667,1002.7777777778,1.0119402985,1.0447761194,0.996054574,FALSE
1,545,181143,1002.7777777778,997.2222222222,1.0776119403,1.0746268657,0.9947814373,FALSE
1,546,181502,997.2222222222,916.6666666667,1.071641791,1.028358209,0.9984895707,FALSE
1,547,181832,916.6666666667,875,0.9850746269,0.9626865672,0.9970431714,FALSE
1,548,182147,875,886.1111111111,0.9402985075,0.9462686567,0.9919691025,FALSE
1,549,182466,886.1111111111,886.1111111111,0.952238806,0.952238806,0.9918711904,FALSE
1,550,182785,886.1111111111,888.8888888889,0.952238806,0.9537313433,0.9991075912,FALSE
1,551,183105,888.8888888889,919.4444444444,0.9552238806,0.971641791,0.9798041519,FALSE
1,552,183436,919.4444444444,950,0.9880597015,1.0044776119,0.9955069822,FALSE
1,553,183778,950,944.4444444444,1.0208955224,1.0179104478,0.9792414619,FALSE
1,554,184118,944.4444444444,872.2222222222,1.0149253731,0.976119403,0.9903259092,FALSE
1,555,184432,872.2222222222,891.6666666667,0.9373134328,0.947761194,0.9968366722,FALSE
1,556,184753,891.6666666667,941.6666666667,0.9582089552,0.9850746269,0.9910736951,FALSE
1,557,185092,941.6666666667,1005.5555555556,1.0119402985,1.0462686567,0.9912775992,FALSE
1,558,185454,1005.5555555556,980.5555555556,1.0805970149,1.0671641791,0.9892987938,FALSE
1,559,185807,980.5555555556,950,1.0537313433,1.0373134328,0.9906319932,FALSE
1,560,186149,950,961.1111111111,1.0208955224,1.0268656716,0.9927780604,FALSE
1,561,186495,961.1111111111,911.1111111111,1.0328358209,1.0059701493,0.959402897,FALSE
1,562,186823,911.1111111111,905.5555555556,0.9791044776,0.976119403,0.9916748328,FALSE
1,563,187149,905.5555555556,1000,0.9731343284,1.023880597,0.9898736932,FALSE
1,564,187509,1000,952.7777777778,1.0746268657,1.0492537313,0.9890158584,FALSE
1,565,187852,952.7777777778,994.4444444444,1.023880597,1.0462686567,0.971955255,FALSE
1,566,188210,994.4444444444,947.2222222222,1.0686567164,1.0432835821,0.9902591777,FALSE
1,567,188551,947.2222222222,891.6666666667,1.0179104478,0.9880597015,0.9920888351,FALSE
1,568,188872,891.6666666667,908.3333333333,0.9582089552,0.9671641791,0.9970978567,FALSE
1,569,189199,908.3333333333,877.7777777778,0.976119403,0.9597014925,0.9910915275,FALSE
1,570,189515,877.7777777778,891.6666666667,0.9432835821,0.9507462687,0.984707815,FALSE
1,571,189836,891.6666666667,880.5555555556,0.9582089552,0.952238806,0.9858206124,FALSE
1,572,190153,880.5555555556,913.8888888889,0.9462686567,0.9641791045,0.9961216684,FALSE
1,573,190482,913.8888888889,850,0.9820895522,0.947761194,0.9965663714,FALSE
1,574,190788,850,886.1111111111,0.9134328358,0.9328358209,0.9963817194,FALSE
1,575,191107,886.1111111111,958.3333333333,0.952238806,0.9910447761,0.9824582181,FALSE
1,576,191452,958.3333333333,1011.1111111111,1.0298507463,1.0582089552,0.9977644745,FALSE
1,577,191816,1011.1111111111,1016.6666666667,1.0865671642,1.0895522388,0.9841893357,FALSE
1,578,192182,1016.6666666667,1022.2222222222,1.0925373134,1.0955223881,0.9958718933,FALSE
1,579,192550,1022.2222222222,986.1111111111,1.0985074627,1.0791044776,0.9879455591,FALSE
1,580,192905,986.1111111111,911.1111111111,1.0597014925,1.0194029851,0.9956885609,FALSE
1,581,193233,911.1111111111,927.7777777778,0.9791044776,0.9880597015,0.9990145322,FALSE
1,582,193567,927.7777777778,961.1111111111,0.9970149254,1.0149253731,0.9974840406,FALSE
1,583,193913,961.1111111111,955.5555555556,1.0328358209,1.0298507463,0.9914382565,FALSE
1,584,194257,955.5555555556,972.2222222222,1.0268656716,1.0358208955,0.9937114002,FALSE
1,585,194607,972.2222222222,972.2222222222,1.0447761194,1.0447761194,0.9919317493,FALSE
1,586,194957,972.2222222222,902.7777777778,1.0447761194,1.0074626866,0.9978951896,FALSE
1,587,195282,902.7777777778,897.2222222222,0.9701492537,0.9671641791,0.9982213246,FALSE
1,588,195605,897.2222222222,997.2222222222,0.9641791045,1.0179104478,0.9974059178,FALSE
1,589,195964,997.2222222222,1000,1.071641791,1.0731343284,0.9958229294,FALSE
1,590,196324,1000,1008.3333333333,1.0746268657,1.0791044776,0.9948316251,FALSE
1,591,196687,1008.3333333333,1011.1111111111,1.0835820896,1.0850746269,0.9887273718,FALSE
1,592,197051,1011.1111111111,969.4444444444,1.0865671642,1.0641791045,0.9968481651,FALSE
1,593,197400,969.4444444444,933.3333333333,1.0417910448,1.0223880597,0.9966187185,FALSE
1,594,197736,933.3333333333,927.7777777778,1.0029850746,1,0.9966085453,FALSE
1,595,198070,927.7777777778,952.7777777778,0.9970149254,1.0104477612,0.9990016885,FALSE
1,596,198413,952.7777777778,975,1.023880597,1.0358208955,0.9791272839,FALSE
1,597,198764,975,1033.3333333333,1.047761194,1.0791044776,0.9979059061,FALSE
1,598,199136,1033.3333333333,969.4444444444,1.1104477612,1.076119403,0.9976688462,FALSE
1,599,199485,969.4444444444,886.1111111111,1.0417910448,0.9970149254,0.9948874954,FALSE
1,600,199804,886.1111111111,930.5555555556,0.952238806,0.976119403,0.9970781537,FALSE
1,601,200139,930.5555555556,994.4444444444,1,1.0343283582,0.9967710946,FALSE
1,602,200497,994.4444444444,1000,1.0686567164,1.071641791,0.9845142192,FALSE
1,603,200857,1000,1000,1.0746268657,1.0746268657,0.9849976141,FALSE
1,604,201217,1000,922.2222222222,1.0746268657,1.0328358209,0.9957826599,FALSE
1,605,201549,922.2222222222,863.8888888889,0.9910447761,0.9597014925,0.9918072089,FALSE
1,606,201860,863.8888888889,855.5555555556,0.928358209,0.923880597,0.9829809263,FALSE
1,607,202168,855.5555555556,869.4444444444,0.9194029851,0.9268656716,0.9894022238,FALSE
1,608,202481,869.4444444444,830.5555555556,0.9343283582,0.9134328358,0.9847711393,FALSE
1,609,202780,830.5555555556,847.2222222222,0.8925373134,0.9014925373,0.9886956796,FALSE
1,610,203085,847.2222222222,844.4444444444,0.9104477612,0.9089552239,0.9939099811,FALSE
1,611,203389,844.4444444444,819.4444444444,0.9074626866,0.8940298507,0.9855950109,FALSE
1,612,203684,819.4444444444,800,0.8805970149,0.8701492537,0.9755557615,FALSE
1,613,203972,800,816.6666666667,0.8597014925,0.8686567164,0.9876783993,FALSE
1,614,204266,816.6666666667,869.4444444444,0.8776119403,0.9059701493,0.9793855895,FALSE
1,615,204579,869.4444444444,941.6666666667,0.9343283582,0.9731343284,0.9916098722,FALSE
1,616,204918,941.6666666667,1047.2222222222,1.0119402985,1.0686567164,0.9958693135,FALSE
1,617,205295,1047.2222222222,1033.3333333333,1.1253731343,1.1179104478,0.9848801226,FALSE
1,618,205667,1033.3333333333,955.5555555556,1.1104477612,1.0686567164,0.9878808744,FALSE
1,619,206011,955.5555555556,972.2222222222,1.0268656716,1.0358208955,0.9838687458,FALSE
1,620,206361,972.2222222222,952.7777777778,1.0447761194,1.0343283582,0.9840553453,FALSE
1,621,206704,952.7777777778,1011.1111111111,1.023880597,1.0552238806,0.9905190369,FALSE
1,622,207068,1011.1111111111,1094.4444444444,1.0865671642,1.1313432836,0.9912349023,FALSE
1,623,207462,1094.4444444444,1030.5555555556,1.176119403,1.1417910448,0.9959917728,FALSE
1,624,207833,1030.5555555556,972.2222222222,1.1074626866,1.076119403,0.988525573,FALSE
1,625,208183,972.2222222222,969.4444444444,1.0447761194,1.0432835821,0.9916768776,FALSE
1,626,208532,969.4444444444,994.4444444444,1.0417910448,1.0552238806,0.9878604095,FALSE
1,627,208890,994.4444444444,1002.7777777778,1.0686567164,1.0731343284,0.9925805589,FALSE
1,628,209251,1002.7777777778,1011.1111111111,1.0776119403,1.0820895522,0.9959620549,FALSE
1,629,209615,1011.1111111111,991.6666666667,1.0865671642,1.076119403,0.9957790791,FALSE
1,630,209972,991.6666666667,927.7777777778,1.0656716418,1.0313432836,0.9940825377,FALSE
1,631,210306,927.7777777778,936.1111111111,0.9970149254,1.0014925373,0.9890792177,FALSE
1,632,210643,936.1111111111,963.8888888889,1.0059701493,1.0208955224,0.9784522165,FALSE
1,633,210990,963.8888888889,1013.8888888889,1.0358208955,1.0626865672,0.9925764367,FALSE
1,634,211355,1013.8888888889,1002.7777777778,1.0895522388,1.0835820896,0.9919304949,FALSE
1,635,211716,1002.7777777778,1013.8888888889,1.0776119403,1.0835820896,0.9925766023,FALSE
1,636,212081,1013.8888888889,947.2222222222,1.0895522388,1.0537313433,0.9960043866,FALSE
1,637,212422,947.2222222222,930.5555555556,1.0179104478,1.0089552239,0.9927351903,FALSE
1,638,212757,930.5555555556,997.2222222222,1,1.0358208955,0.9891921136,FALSE
1,639,213116,997.2222222222,997.2222222222,1.071641791,1.071641791,0.9944603583,FALSE
1,640,213475,997.2222222222,983.3333333333,1.071641791,1.0641791045,0.9931354459,FALSE
1,641,213829,983.3333333333,991.6666666667,1.0567164179,1.0611940299,0.9948396163,FALSE
1,642,214186,991.6666666667,941.6666666667,1.0656716418,1.0388059701,0.9927970658,FALSE
1,643,214525,941.6666666667,813.8888888889,1.0119402985,0.9432835821,0.990575871,FALSE
1,644,214818,813.8888888889,872.2222222222,0.8746268657,0.9059701493,0.9828590816,FALSE
1,645,215132,872.2222222222,963.8888888889,0.9373134328,0.9865671642,0.9952028644,FALSE
1,646,215479,963.8888888889,1011.1111111111,1.0358208955,1.0611940299,0.9959484756,FALSE
1,647,215843,1011.1111111111,1008.3333333333,1.0865671642,1.0850746269,0.992138972,FALSE
1,648,216206,1008.3333333333,916.6666666667,1.0835820896,1.0343283582,0.9855798851,FALSE
1,649,216536,916.6666666667,875,0.9850746269,0.9626865672,0.9852300008,FALSE
1,650,216851,875,861.1111111111,0.9402985075,0.9328358209,0.979200379,FALSE
1,651,217161,861.1111111111,908.3333333333,0.9253731343,0.9507462687,0.985052611,FALSE
1,652,217488,908.3333333333,905.5555555556,0.976119403,0.9746268657,0.9970548102,FALSE
1,653,217814,905.5555555556,897.2222222222,0.9731343284,0.9686567164,0.9950116436,FALSE
1,654,218137,897.2222222222,911.1111111111,0.9641791045,0.971641791,0.9876044676,FALSE
1,655,218465,911.1111111111,913.8888888889,0.9791044776,0.9805970149,0.9938484842,FALSE
1,656,218794,913.8888888889,916.6666666667,0.9820895522,0.9835820896,0.991584716,FALSE
1,657,219124,916.6666666667,908.3333333333,0.9850746269,0.9805970149,0.9927690478,FALSE
1,658,219451,908.3333333333,944.4444444444,0.976119403,0.9955223881,0.9812027613,FALSE
1,659,219791,944.4444444444,980.5555555556,1.0149253731,1.0343283582,0.9862431903,FALSE
1,660,220144,980.5555555556,1041.6666666667,1.0537313433,1.0865671642,0.9932161366,FALSE
1,661,220519,1041.6666666667,997.2222222222,1.1194029851,1.0955223881,0.9972328802,FALSE
1,662,220878,997.2222222222,966.6666666667,1.071641791,1.0552238806,0.99366997,FALSE
1,663,221226,966.6666666667,1033.3333333333,1.0388059701,1.0746268657,0.9864239487,FALSE
1,664,221598,1033.3333333333,1094.4444444444,1.1104477612,1.1432835821,0.9924815053,FALSE
1,665,221992,1094.4444444444,1113.8888888889,1.176119403,1.1865671642,0.9954509896,FALSE
1,666,222393,1113.8888888889,1058.3333333333,1.1970149254,1.1671641791,0.996393301,FALSE
1,667,222774,1058.3333333333,1016.6666666667,1.1373134328,1.1149253731,0.9962385996,FALSE
1,668,223140,1016.6666666667,994.4444444444,1.0925373134,1.0805970149,0.9860054049,FALSE
1,669,223498,994.4444444444,963.8888888889,1.0686567164,1.052238806,0.9934440384,FALSE
1,670,223845,963.8888888889,1000,1.0358208955,1.0552238806,0.9884951537,FALSE
1,671,224205,1000,1000,1.0746268657,1.0746268657,0.9966521142,FALSE
1,672,224565,1000,927.7777777778,1.0746268657,1.0358208955,0.9978436873,FALSE
1,673,224899,927.7777777778,919.4444444444,0.9970149254,0.9925373134,0.9977202291,FALSE
1,674,225230,919.4444444444,888.8888888889,0.9880597015,0.971641791,0.9878676417,FALSE
1,675,225550,888.8888888889,855.5555555556,0.9552238806,0.9373134328,0.9954494349,FALSE
1,676,225858,855.5555555556,883.3333333333,0.9194029851,0.9343283582,0.9908533617,FALSE
1,677,226176,883.3333333333,891.6666666667,0.9492537313,0.9537313433,0.9656970376,FALSE
1,678,226497,891.6666666667,902.7777777778,0.9582089552,0.9641791045,0.9810261859,FALSE
1,679,226822,902.7777777778,858.3333333333,0.9701492537,0.9462686567,0.9951656125,FALSE
1,680,227131,858.3333333333,805.5555555556,0.9223880597,0.8940298507,0.9963415607,FALSE
1,681,227421,805.5555555556,827.7777777778,0.8656716418,0.8776119403,0.9940131887,FALSE
1,682,227719,827.7777777778,822.2222222222,0.8895522388,0.8865671642,0.9595203311,FALSE
1,683,228015,822.2222222222,900,0.8835820896,0.9253731343,0.9764041301,FALSE
1,684,228339,900,941.6666666667,0.9671641791,0.9895522388,0.9658978988,FALSE
1,685,228678,941.6666666667,911.1111111111,1.0119402985,0.9955223881,0.9723885765,FALSE
1,686,229006,911.1111111111,908.3333333333,0.9791044776,0.9776119403,0.9863464813,FALSE
1,687,229333,908.3333333333,936.1111111111,0.976119403,0.9910447761,0.9829766656,FALSE
1,688,229670,936.1111111111,883.3333333333,1.0059701493,0.9776119403,0.9887394768,FALSE
1,689,229988,883.3333333333,833.3333333333,0.9492537313,0.9223880597,0.9874269641,FALSE
1,690,230288,833.3333333333,852.7777777778,0.8955223881,0.9059701493,0.968700818,FALSE
1,691,230595,852.7777777778,922.2222222222,0.9164179104,0.9537313433,0.969509691,FALSE
1,692,230927,922.2222222222,944.4444444444,0.9910447761,1.0029850746,0.9845882398,FALSE
1,693,231267,944.4444444444,958.3333333333,1.0149253731,1.0223880597,0.9882510598,FALSE
1,694,231612,958.3333333333,925,1.0298507463,1.0119402985,0.971876857,FALSE
1,695,231945,925,838.8888888889,0.9940298507,0.947761194,0.9894366519,FALSE
1,696,232247,838.8888888889,886.1111111111,0.9014925373,0.9268656716,0.9812813938,FALSE
1,697,232566,886.1111111111,958.3333333333,0.952238806,0.9910447761,0.9765498612,FALSE
1,698,232911,958.3333333333,969.4444444444,1.0298507463,1.0358208955,0.9894091617,FALSE
1,699,233260,969.4444444444,936.1111111111,1.0417910448,1.023880597,0.9903204318,FALSE
1,700,233597,936.1111111111,902.7777777778,1.0059701493,0.9880597015,0.9944355251,FALSE
1,701,233922,902.7777777778,894.4444444444,0.9701492537,0.9656716418,0.9788338082,FALSE
1,702,234244,894.4444444444,905.5555555556,0.9611940299,0.9671641791,0.9973481424,FALSE
1,703,234570,905.5555555556,897.2222222222,0.9731343284,0.9686567164,0.9948694273,FALSE
1,704,234893,897.2222222222,936.1111111111,0.9641791045,0.9850746269,0.9879828093,FALSE
1,705,235230,936.1111111111,966.6666666667,1.0059701493,1.0223880597,0.9809802339,FALSE
1,706,235578,966.6666666667,991.6666666667,1.0388059701,1.052238806,0.9956359004,FALSE
1,707,235935,991.6666666667,927.7777777778,1.0656716418,1.0313432836,0.9982446782,FALSE
1,708,236269,927.7777777778,905.5555555556,0.9970149254,0.9850746269,0.9966522369,FALSE
1,709,236595,905.5555555556,877.7777777778,0.9731343284,0.9582089552,0.9963351748,FALSE
1,710,236911,877.7777777778,908.3333333333,0.9432835821,0.9597014925,0.9933184784,FALSE
1,711,237238,908.3333333333,958.3333333333,0.976119403,1.0029850746,0.9891547994,FALSE
1,712,237583,958.3333333333,977.7777777778,1.0298507463,1.0402985075,0.9980262096,FALSE
1,713,237935,977.7777777778,863.8888888889,1.0507462687,0.9895522388,0.9817246526,FALSE
1,714,238246,863.8888888889,891.6666666667,0.928358209,0.9432835821,0.9896144627,FALSE
1,715,238567,891.6666666667,919.4444444444,0.9582089552,0.9731343284,0.9962770641,FALSE
1,716,238898,919.4444444444,997.2222222222,0.9880597015,1.0298507463,0.9968033113,FALSE
1,717,239257,997.2222222222,1002.7777777778,1.071641791,1.0746268657,0.993245834,FALSE
1,718,239618,1002.7777777778,952.7777777778,1.0776119403,1.0507462687,0.9843252823,FALSE
1,719,239961,952.7777777778,888.8888888889,1.023880597,0.9895522388,0.9979643521,FALSE
1,720,240281,888.8888888889,819.4444444444,0.9552238806,0.9179104478,0.9836591549,FALSE
1,721,240576,819.4444444444,800,0.8805970149,0.8701492537,0.9798997234,FALSE
1,722,240864,800,855.5555555556,0.8597014925,0.8895522388,0.9954517906,FALSE
1,723,241172,855.5555555556,955.5555555556,0.9194029851,0.9731343284,0.9961956103,FALSE
1,724,241516,955.5555555556,977.7777777778,1.0268656716,1.0388059701,0.9918119587,FALSE
1,725,241868,977.7777777778,1013.8888888889,1.0507462687,1.0701492537,0.9826978407,FALSE
1,726,242233,1013.8888888889,1016.6666666667,1.0895522388,1.0910447761,0.9952946213,FALSE
1,727,242599,1016.6666666667,1008.3333333333,1.0925373134,1.0880597015,0.9902149237,FALSE
1,728,242962,1008.3333333333,955.5555555556,1.0835820896,1.0552238806,0.9858811452,FALSE
1,729,243306,955.5555555556,991.6666666667,1.0268656716,1.0462686567,0.9921789533,FALSE
1,730,243663,991.6666666667,1000,1.0656716418,1.0701492537,0.9953441267,FALSE
1,731,244023,1000,930.5555555556,1.0746268657,1.0373134328,0.9784642232,FALSE
1,732,244358,930.5555555556,947.2222222222,1,1.0089552239,0.9792749685,FALSE
1,733,244699,947.2222222222,922.2222222222,1.0179104478,1.0044776119,0.9940744563,FALSE
1,734,245031,922.2222222222,938.8888888889,0.9910447761,1,0.9913364981,FALSE
1,735,245369,938.8888888889,988.8888888889,1.0089552239,1.0358208955,0.9708401695,FALSE
1,736,245725,988.8888888889,969.4444444444,1.0626865672,1.052238806,0.9685745118,FALSE
1,737,246074,969.4444444444,950,1.0417910448,1.0313432836,0.9906374865,FALSE
1,738,246416,950,927.7777777778,1.0208955224,1.0089552239,0.9872195924,FALSE
1,739,246750,927.7777777778,825,0.9970149254,0.9417910448,0.975356011,FALSE
1,740,247047,825,813.8888888889,0.8865671642,0.8805970149,0.9879296453,FALSE
1,741,247340,813.8888888889,830.5555555556,0.8746268657,0.8835820896,0.967946601,FALSE
1,742,247639,830.5555555556,872.2222222222,0.8925373134,0.9149253731,0.990296726,FALSE
1,743,247953,872.2222222222,847.2222222222,0.9373134328,0.923880597,0.9940991603,FALSE
1,744,248258,847.2222222222,852.7777777778,0.9104477612,0.9134328358,0.9952745421,FALSE
1,745,248565,852.7777777778,827.7777777778,0.9164179104,0.9029850746,0.9940031024,FALSE
1,746,248863,827.7777777778,833.3333333333,0.8895522388,0.8925373134,0.9962579632,FALSE
1,747,249163,833.3333333333,819.4444444444,0.8955223881,0.8880597015,0.9783347672,FALSE
1,748,249458,819.4444444444,794.4444444444,0.8805970149,0.8671641791,0.9951908758,FALSE
1,749,249744,794.4444444444,836.1111111111,0.8537313433,0.876119403,0.9964635545,FALSE
1,750,250045,836.1111111111,858.3333333333,0.8985074627,0.9104477612,0.9887071222,FALSE
1,751,250354,858.3333333333,833.3333333333,0.9223880597,0.9089552239,0.9969793464,FALSE
1,752,250654,833.3333333333,850,0.8955223881,0.9044776119,0.9807335872,FALSE
1,753,250960,850,769.4444444444,0.9134328358,0.8701492537,0.9957540883,FALSE
1,754,251237,769.4444444444,786.1111111111,0.8268656716,0.8358208955,0.9921064075,FALSE
1,755,251520,786.1111111111,816.6666666667,0.8447761194,0.8611940299,0.9848428447,FALSE
1,756,251814,816.6666666667,850,0.8776119403,0.8955223881,0.9938477692,FALSE
1,757,252120,850,988.8888888889,0.9134328358,0.9880597015,0.972525882,FALSE
1,758,252476,988.8888888889,983.3333333333,1.0626865672,1.0597014925,0.9960700583,FALSE
1,759,252830,983.3333333333,925,1.0567164179,1.0253731343,0.987480677,FALSE
1,760,253163,925,861.1111111111,0.9940298507,0.9597014925,0.9920531204,FALSE
1,761,253473,861.1111111111,805.5555555556,0.9253731343,0.8955223881,0.9958259158,FALSE
1,762,253763,805.5555555556,841.6666666667,0.8656716418,0.8850746269,0.9961882541,FALSE
1,763,254066,841.6666666667,813.8888888889,0.9044776119,0.8895522388,0.9780747219,FALSE
1,764,254359,813.8888888889,866.6666666667,0.8746268657,0.9029850746,0.9957397429,FALSE
1,765,254671,866.6666666667,905.5555555556,0.9313432836,0.952238806,0.9926606453,FALSE
1,766,254997,905.5555555556,863.8888888889,0.9731343284,0.9507462687,0.9948977068,FALSE
1,767,255308,863.8888888889,855.5555555556,0.928358209,0.923880597,0.9925824368,FALSE
1,768,255616,855.5555555556,844.4444444444,0.9194029851,0.9134328358,0.9902041162,FALSE
1,769,255920,844.4444444444,766.6666666667,0.9074626866,0.8656716418,0.9895800515,FALSE
1,770,256196,766.6666666667,872.2222222222,0.823880597,0.8805970149,0.3854917197,TRUE
1,771,256510,872.2222222222,838.8888888889,0.9373134328,0.9194029851,0.9809115066,FALSE
1,772,256812,838.8888888889,838.8888888889,0.9014925373,0.9014925373,0.986316586,FALSE
1,773,257114,838.8888888889,808.3333333333,0.9014925373,0.8850746269,0.9934860179,FALSE
1,774,257405,808.3333333333,500,0.8686567164,0.7029850746,0.9911541458,FALSE
1,775,257585,500,1041.6666666667,0.5373134328,0.828358209,0.7890225698,TRUE
1,776,257960,1041.6666666667,750,1.1194029851,0.9626865672,0.9863498371,FALSE
1,777,258230,750,844.4444444444,0.8059701493,0.8567164179,0.2578014065,TRUE
1,778,258534,844.4444444444,508.3333333333,0.9074626866,0.7268656716,0.9942775516,FALSE
1,779,258717,508.3333333333,1144.4444444444,0.5462686567,0.8880597015,0.7417225772,TRUE
1,780,259129,1144.4444444444,805.5555555556,1.2298507463,1.047761194,0.989636388,FALSE
1,781,259419,805.5555555556,505.5555555556,0.8656716418,0.7044776119,0.9970960557,FALSE
1,782,259601,505.5555555556,1086.1111111111,0.5432835821,0.8552238806,0.8210788741,TRUE
1,783,259992,1086.1111111111,488.8888888889,1.1671641791,0.8462686567,0.9921955338,FALSE
1,784,260168,488.8888888889,1191.6666666667,0.5253731343,0.9029850746,0.7526095697,TRUE
1,785,260597,1191.6666666667,811.1111111111,1.2805970149,1.076119403,0.9946575059,FALSE
1,786,260889,811.1111111111,811.1111111111,0.871641791,0.871641791,0.9941729319,FALSE
1,787,261181,811.1111111111,833.3333333333,0.871641791,0.8835820896,0.9957677908,FALSE
1,788,261481,833.3333333333,519.4444444444,0.8955223881,0.7268656716,0.9914928599,FALSE
1,789,261668,519.4444444444,1052.7777777778,0.5582089552,0.8447761194,0.7786872334,TRUE
1,790,262047,1052.7777777778,744.4444444444,1.1313432836,0.9656716418,0.9869919904,FALSE
1,791,262315,744.4444444444,730.5555555556,0.8,0.7925373134,0.9898114114,FALSE
1,792,262578,730.5555555556,727.7777777778,0.7850746269,0.7835820896,0.9926207105,FALSE
1,793,262840,727.7777777778,213.8888888889,0.7820895522,0.5059701493,0.1594127126,TRUE
1,794,262917,213.8888888889,1219.4444444444,0.2298507463,0.7701492537,0.708882496,TRUE
1,795,263356,1219.4444444444,808.3333333333,1.3104477612,1.0895522388,0.9910498032,FALSE
1,796,263647,808.3333333333,747.2222222222,0.8686567164,0.8358208955,0.9933303624,FALSE
1,797,263916,747.2222222222,825,0.8029850746,0.8447761194,0.2527451204,TRUE
1,798,264213,825,483.3333333333,0.8865671642,0.7029850746,0.9827203671,FALSE
1,799,264387,483.3333333333,1036.1111111111,0.5194029851,0.8164179104,0.7613547965,TRUE
1,800,264760,1036.1111111111,783.3333333333,1.1134328358,0.9776119403,0.9943872522,FALSE
1,801,265042,783.3333333333,819.4444444444,0.8417910448,0.8611940299,0.9954968538,FALSE
1,802,265337,819.4444444444,775,0.8805970149,0.8567164179,0.9909079767,FALSE
1,803,265616,775,880.5555555556,0.8328358209,0.8895522388,0.1582483388,TRUE
1,804,265933,880.5555555556,775,0.9462686567,0.8895522388,0.9960554286,FALSE
1,805,266212,775,741.6666666667,0.8328358209,0.8149253731,0.9970131693,FALSE
1,806,266479,741.6666666667,211.1111111111,0.7970149254,0.5119402985,0.3218369696,TRUE
1,807,266555,211.1111111111,1069.4444444444,0.2268656716,0.6880597015,0.7391518702,TRUE
1,808,266940,1069.4444444444,713.8888888889,1.1492537313,0.9582089552,0.9848191437,FALSE
1,809,267197,713.8888888889,825,0.7671641791,0.8268656716,0.3756806911,TRUE
1,810,267494,825,744.4444444444,0.8865671642,0.8432835821,0.9952097825,FALSE
1,811,267762,744.4444444444,758.3333333333,0.8,0.8074626866,0.9930192118,FALSE
1,812,268035,758.3333333333,255.5555555556,0.8149253731,0.5447761194,0.0528792737,TRUE
1,813,268127,255.5555555556,1058.3333333333,0.2746268657,0.7059701493,0.6706748816,TRUE
1,814,268508,1058.3333333333,675,1.1373134328,0.9313432836,0.9947329185,FALSE
1,815,268751,675,702.7777777778,0.7253731343,0.7402985075,0.6291031905,TRUE
1,816,269004,702.7777777778,733.3333333333,0.7552238806,0.771641791,0.9896494687,FALSE
1,817,269268,733.3333333333,722.2222222222,0.7880597015,0.7820895522,0.1743127842,TRUE
1,818,269528,722.2222222222,738.8888888889,0.776119403,0.7850746269,0.9786784849,FALSE
1,819,269794,738.8888888889,694.4444444444,0.7940298507,0.7701492537,0.0254882242,TRUE
1,820,270044,694.4444444444,711.1111111111,0.7462686567,0.7552238806,0.9813474177,FALSE
1,821,270300,711.1111111111,688.8888888889,0.7641791045,0.752238806,0.3703845369,TRUE
1,822,270548,688.8888888889,688.8888888889,0.7402985075,0.7402985075,0.9944323075,FALSE
1,823,270796,688.8888888889,644.4444444444,0.7402985075,0.7164179104,0.586605769,TRUE
1,824,271028,644.4444444444,455.5555555556,0.6925373134,0.5910447761,0.9950722198,FALSE
1,825,271192,455.5555555556,900,0.4895522388,0.728358209,0.8389885776,TRUE
1,826,271516,900,480.5555555556,0.9671641791,0.7417910448,0.9942986462,FALSE
1,827,271689,480.5555555556,994.4444444444,0.5164179104,0.7925373134,0.7877334127,TRUE
1,828,272047,994.4444444444,480.5555555556,1.0686567164,0.7925373134,0.9810505447,FALSE
1,829,272220,480.5555555556,1002.7777777778,0.5164179104,0.7970149254,0.8115854624,TRUE
1,830,272581,1002.7777777778,469.4444444444,1.0776119403,0.7910447761,0.9963510946,FALSE
1,831,272750,469.4444444444,922.2222222222,0.5044776119,0.747761194,0.8214888531,TRUE
1,832,273082,922.2222222222,444.4444444444,0.9910447761,0.7343283582,0.9776994934,FALSE
1,833,273242,444.4444444444,975,0.4776119403,0.7626865672,0.8390419098,TRUE
1,834,273593,975,483.3333333333,1.047761194,0.7835820896,0.9969243869,FALSE
1,835,273767,483.3333333333,1019.4444444444,0.5194029851,0.8074626866,0.795669314,TRUE
1,836,274134,1019.4444444444,497.2222222222,1.0955223881,0.8149253731,0.9674523343,FALSE
1,837,274313,497.2222222222,1033.3333333333,0.5343283582,0.8223880597,0.8107603593,TRUE
1,838,274685,1033.3333333333,461.1111111111,1.1104477612,0.8029850746,0.9933600153,FALSE
1,839,274851,461.1111111111,947.2222222222,0.4955223881,0.7567164179,0.8438127648,TRUE
1,840,275192,947.2222222222,472.2222222222,1.0179104478,0.7626865672,0.9968984849,FALSE
1,841,275362,472.2222222222,905.5555555556,0.5074626866,0.7402985075,0.8724448771,TRUE
1,842,275688,905.5555555556,733.3333333333,0.9731343284,0.8805970149,0.979118159,FALSE
1,843,275952,733.3333333333,702.7777777778,0.7880597015,0.771641791,0.3711780119,TRUE
1,844,276205,702.7777777778,488.8888888889,0.7552238806,0.6402985075,0.9969944289,FALSE
1,845,276381,488.8888888889,941.6666666667,0.5253731343,0.7686567164,0.8301432456,TRUE
1,846,276720,941.6666666667,494.4444444444,1.0119402985,0.771641791,0.9906967425,FALSE
1,847,276898,494.4444444444,913.8888888889,0.5313432836,0.7567164179,0.8246090748,TRUE
1,848,277227,913.8888888889,455.5555555556,0.9820895522,0.7358208955,0.9964332158,FALSE
1,849,277391,455.5555555556,916.6666666667,0.4895522388,0.7373134328,0.8405160287,TRUE
1,850,277721,916.6666666667,452.7777777778,0.9850746269,0.7358208955,0.986897554,FALSE
1,851,277884,452.7777777778,972.2222222222,0.4865671642,0.7656716418,0.8475361374,TRUE
1,852,278234,972.2222222222,497.2222222222,1.0447761194,0.7895522388,0.9955634942,FALSE
1,853,278413,497.2222222222,994.4444444444,0.5343283582,0.8014925373,0.7637395297,TRUE
1,854,278771,994.4444444444,477.7777777778,1.0686567164,0.7910447761,0.9965866727,FALSE
1,855,278943,477.7777777778,911.1111111111,0.5134328358,0.7462686567,0.8527873434,TRUE
1,856,279271,911.1111111111,444.4444444444,0.9791044776,0.728358209,0.9979990976,FALSE
1,857,279431,444.4444444444,861.1111111111,0.4776119403,0.7014925373,0.8566306165,TRUE
1,858,279741,861.1111111111,444.4444444444,0.9253731343,0.7014925373,0.9953851681,FALSE
1,859,279901,444.4444444444,911.1111111111,0.4776119403,0.728358209,0.9002065516,FALSE
1,860,280229,911.1111111111,483.3333333333,0.9791044776,0.7492537313,0.9898978433,FALSE
1,861,280403,483.3333333333,905.5555555556,0.5194029851,0.7462686567,0.8335790105,TRUE
1,862,280729,905.5555555556,480.5555555556,0.9731343284,0.7447761194,0.9751834049,FALSE
1,863,280902,480.5555555556,897.2222222222,0.5164179104,0.7402985075,0.8033631381,TRUE
1,864,281225,897.2222222222,458.3333333333,0.9641791045,0.728358209,0.9863190409,FALSE
1,865,281390,458.3333333333,886.1111111111,0.4925373134,0.7223880597,0.8785516315,TRUE
1,866,281709,886.1111111111,438.8888888889,0.952238806,0.7119402985,0.9917684329,FALSE
1,867,281867,438.8888888889,938.8888888889,0.471641791,0.7402985075,0.8435301527,TRUE
1,868,282205,938.8888888889,436.1111111111,1.0089552239,0.7388059701,0.9559267232,FALSE
1,869,282362,436.1111111111,980.5555555556,0.4686567164,0.7611940299,0.8421726956,TRUE
1,870,282715,980.5555555556,475,1.0537313433,0.7820895522,0.9873264098,FALSE
1,871,282886,475,955.5555555556,0.5104477612,0.7686567164,0.6953660585,TRUE
1,872,283230,955.5555555556,480.5555555556,1.0268656716,0.771641791,0.99616298,FALSE
1,873,283403,480.5555555556,866.6666666667,0.5164179104,0.723880597,0.8832362331,TRUE
1,874,283715,866.6666666667,438.8888888889,0.9313432836,0.7014925373,0.9952990069,FALSE
1,875,283873,438.8888888889,863.8888888889,0.471641791,0.7,0.8684970381,TRUE
1,876,284184,863.8888888889,472.2222222222,0.928358209,0.7179104478,0.9971077182,FALSE
1,877,284354,472.2222222222,938.8888888889,0.5074626866,0.7582089552,0.8565439032,TRUE
1,878,284692,938.8888888889,475,1.0089552239,0.7597014925,0.990820846,FALSE
1,879,284863,475,938.8888888889,0.5104477612,0.7597014925,0.87970786,TRUE
1,880,285201,938.8888888889,458.3333333333,1.0089552239,0.7507462687,0.9964934618,FALSE
1,881,285366,458.3333333333,913.8888888889,0.4925373134,0.7373134328,0.825073904,TRUE
1,882,285695,913.8888888889,427.7777777778,0.9820895522,0.7208955224,0.9945354376,FALSE
1,883,285849,427.7777777778,891.6666666667,0.4597014925,0.7089552239,0.8939798715,TRUE
1,884,286170,891.6666666667,450,0.9582089552,0.7208955224,0.9678348683,FALSE
1,885,286332,450,922.2222222222,0.4835820896,0.7373134328,0.8854466522,TRUE
1,886,286664,922.2222222222,461.1111111111,0.9910447761,0.7432835821,0.9950177851,FALSE
1,887,286830,461.1111111111,983.3333333333,0.4955223881,0.776119403,0.8735437537,TRUE
1,888,287184,983.3333333333,475,1.0567164179,0.7835820896,0.9894178336,FALSE
1,889,287355,475,1019.4444444444,0.5104477612,0.8029850746,0.88255771,TRUE
1,890,287722,1019.4444444444,447.2222222222,1.0955223881,0.7880597015,0.9754045089,FALSE
1,891,287883,447.2222222222,966.6666666667,0.4805970149,0.7597014925,0.8425215534,TRUE
1,892,288231,966.6666666667,441.6666666667,1.0388059701,0.7567164179,0.9903096911,FALSE
1,893,288390,441.6666666667,988.8888888889,0.4746268657,0.7686567164,0.8926885697,TRUE
1,894,288746,988.8888888889,472.2222222222,1.0626865672,0.7850746269,0.9882943544,FALSE
1,895,288916,472.2222222222,1061.1111111111,0.5074626866,0.823880597,0.8401020872,TRUE
1,896,289298,1061.1111111111,497.2222222222,1.1402985075,0.8373134328,0.9964354101,FALSE
1,897,289477,497.2222222222,983.3333333333,0.5343283582,0.7955223881,0.8291915706,TRUE
1,898,289831,983.3333333333,461.1111111111,1.0567164179,0.776119403,0.9936390958,FALSE
1,899,289997,461.1111111111,897.2222222222,0.4955223881,0.7298507463,0.8788895269,TRUE
1,900,290320,897.2222222222,466.6666666667,0.9641791045,0.7328358209,0.9785316069,FALSE
1,901,290488,466.6666666667,916.6666666667,0.5014925373,0.7432835821,0.8773145275,TRUE
1,902,290818,916.6666666667,488.8888888889,0.9850746269,0.7552238806,0.9888994231,FALSE
1,903,290994,488.8888888889,938.8888888889,0.5253731343,0.7671641791,0.8453183442,TRUE
1,904,291332,938.8888888889,494.4444444444,1.0089552239,0.7701492537,0.9925348552,FALSE
1,905,291510,494.4444444444,930.5555555556,0.5313432836,0.7656716418,0.857161738,TRUE
1,906,291845,930.5555555556,475,1,0.7552238806,0.9884027906,FALSE
1,907,292016,475,894.4444444444,0.5104477612,0.7358208955,0.9483788933,FALSE
1,908,292338,894.4444444444,463.8888888889,0.9611940299,0.7298507463,0.976189322,FALSE
1,909,292505,463.8888888889,922.2222222222,0.4985074627,0.7447761194,0.9100582771,FALSE
1,910,292837,922.2222222222,463.8888888889,0.9910447761,0.7447761194,0.9741417466,FALSE
1,911,293004,463.8888888889,1005.5555555556,0.4985074627,0.7895522388,0.9314044255,FALSE
1,912,293366,1005.5555555556,480.5555555556,1.0805970149,0.7985074627,0.9949420419,FALSE
1,913,293539,480.5555555556,1066.6666666667,0.5164179104,0.8313432836,0.8301198779,TRUE
1,914,293923,1066.6666666667,483.3333333333,1.1462686567,0.8328358209,0.9745066188,FALSE
1,915,294097,483.3333333333,963.8888888889,0.5194029851,0.7776119403,0.6999374966,TRUE
1,916,294444,963.8888888889,705.5555555556,1.0358208955,0.8970149254,0.9872266678,FALSE
1,917,294698,705.5555555556,700,0.7582089552,0.7552238806,0.5642250642,TRUE
1,918,294950,700,1436.1111111111,0.752238806,1.147761194,0.9787043765,FALSE
1,919,295467,1436.1111111111,555.5555555556,1.5432835821,1.0701492537,0.9951574593,FALSE
1,920,295667,555.5555555556,944.4444444444,0.5970149254,0.8059701493,0.7909111109,TRUE
1,921,296007,944.4444444444,494.4444444444,1.0149253731,0.7731343284,0.9788144004,FALSE
1,922,296185,494.4444444444,972.2222222222,0.5313432836,0.7880597015,0.8586788307,TRUE
1,923,296535,972.2222222222,463.8888888889,1.0447761194,0.771641791,0.989761459,FALSE
1,924,296702,463.8888888889,983.3333333333,0.4985074627,0.7776119403,0.8871105464,TRUE
1,925,297056,983.3333333333,466.6666666667,1.0567164179,0.7791044776,0.9765201385,FALSE
1,926,297224,466.6666666667,1080.5555555556,0.5014925373,0.8313432836,0.8625245285,TRUE
1,927,297613,1080.5555555556,491.6666666667,1.1611940299,0.8447761194,0.9909540927,FALSE
1,928,297790,491.6666666667,1161.1111111111,0.528358209,0.8880597015,0.8762115983,TRUE
1,929,298208,1161.1111111111,494.4444444444,1.247761194,0.8895522388,0.9775958887,FALSE
1,930,298386,494.4444444444,1133.3333333333,0.5313432836,0.8746268657,0.8552158557,TRUE
1,931,298794,1133.3333333333,463.8888888889,1.2179104478,0.8582089552,0.9896807463,FALSE
1,932,298961,463.8888888889,1127.7777777778,0.4985074627,0.8552238806,0.8654021854,TRUE
1,933,299367,1127.7777777778,480.5555555556,1.2119402985,0.8641791045,0.9852834833,FALSE
1,934,299540,480.5555555556,1269.4444444444,0.5164179104,0.9402985075,0.8732576885,TRUE
1,935,299997,1269.4444444444,508.3333333333,1.3641791045,0.9552238806,0.9952040946,FALSE
1,936,300180,508.3333333333,1197.2222222222,0.5462686567,0.9164179104,0.8357678069,TRUE
1,937,300611,1197.2222222222,488.8888888889,1.2865671642,0.9059701493,0.9945810405,FALSE
1,938,300787,488.8888888889,1183.3333333333,0.5253731343,0.8985074627,0.8576248154,TRUE
1,939,301213,1183.3333333333,486.1111111111,1.271641791,0.8970149254,0.9906692923,FALSE
1,940,301388,486.1111111111,1222.2222222222,0.5223880597,0.9179104478,0.8952988493,TRUE
1,941,301828,1222.2222222222,505.5555555556,1.3134328358,0.928358209,0.989424079,FALSE
1,942,302010,505.5555555556,1202.7777777778,0.5432835821,0.9179104478,0.8567408681,TRUE
1,943,302443,1202.7777777778,527.7777777778,1.2925373134,0.9298507463,0.9967736305,FALSE
1,944,302633,527.7777777778,1113.8888888889,0.5671641791,0.8820895522,0.8774892663,TRUE
1,945,303034,1113.8888888889,491.6666666667,1.1970149254,0.8626865672,0.9747300291,FALSE
1,946,303211,491.6666666667,1016.6666666667,0.528358209,0.8104477612,0.7922537711,TRUE
1,947,303577,1016.6666666667,488.8888888889,1.0925373134,0.8089552239,0.988726245,FALSE
1,948,303753,488.8888888889,1130.5555555556,0.5253731343,0.8701492537,0.828502222,TRUE
1,949,304160,1130.5555555556,511.1111111111,1.2149253731,0.8820895522,0.9926567908,FALSE
1,950,304344,511.1111111111,1222.2222222222,0.5492537313,0.9313432836,0.84785252,TRUE
1,951,304784,1222.2222222222,511.1111111111,1.3134328358,0.9313432836,0.9726223293,FALSE
1,952,304968,511.1111111111,1144.4444444444,0.5492537313,0.8895522388,0.8483000517,TRUE
1,953,305380,1144.4444444444,472.2222222222,1.2298507463,0.8686567164,0.9857483501,FALSE
1,954,305550,472.2222222222,1177.7777777778,0.5074626866,0.8865671642,0.8472312331,TRUE
1,955,305974,1177.7777777778,527.7777777778,1.2656716418,0.9164179104,0.994697379,FALSE
1,956,306164,527.7777777778,1211.1111111111,0.5671641791,0.9343283582,0.8086356411,TRUE
1,957,306600,1211.1111111111,536.1111111111,1.3014925373,0.9388059701,0.9860760243,FALSE
1,958,306793,536.1111111111,1100,0.576119403,0.8791044776,0.75248248,TRUE
1,959,307189,1100,747.2222222222,1.1820895522,0.9925373134,0.9905097839,FALSE
1,960,307458,747.2222222222,816.6666666667,0.8029850746,0.8402985075,0.2297653205,TRUE
1,961,307752,816.6666666667,500,0.8776119403,0.7074626866,0.9886902351,FALSE
1,962,307932,500,1147.2222222222,0.5373134328,0.8850746269,0.9023939075,FALSE
1,963,308345,1147.2222222222,516.6666666667,1.2328358209,0.8940298507,0.9875518142,FALSE
1,964,308531,516.6666666667,1200,0.5552238806,0.9223880597,0.8488109615,TRUE
1,965,308963,1200,538.8888888889,1.2895522388,0.9343283582,0.9886727011,FALSE
1,966,309157,538.8888888889,1147.2222222222,0.5791044776,0.9059701493,0.8162627267,TRUE
1,967,309570,1147.2222222222,480.5555555556,1.2328358209,0.8746268657,0.9846392636,FALSE
1,968,309743,480.5555555556,1091.6666666667,0.5164179104,0.8447761194,0.8611190559,TRUE
1,969,310136,1091.6666666667,1630.5555555556,1.1731343284,1.4626865672,0.9842940265,FALSE
1,970,310723,1630.5555555556,547.2222222222,1.752238806,1.1701492537,0.9779667714,FALSE
1,971,310920,547.2222222222,1094.4444444444,0.5880597015,0.8820895522,0.8358104862,TRUE
1,972,311314,1094.4444444444,511.1111111111,1.176119403,0.8626865672,0.9628986683,FALSE
1,973,311498,511.1111111111,1041.6666666667,0.5492537313,0.8343283582,0.8943577011,TRUE
1,974,311873,1041.6666666667,744.4444444444,1.1194029851,0.9597014925,0.9940830954,FALSE
1,975,312141,744.4444444444,197.2222222222,0.8,0.5059701493,0.3189803701,TRUE
1,976,312212,197.2222222222,1186.1111111111,0.2119402985,0.7432835821,0.6545881332,TRUE
1,977,312639,1186.1111111111,494.4444444444,1.2746268657,0.9029850746,0.9921945456,FALSE
1,978,312817,494.4444444444,1111.1111111111,0.5313432836,0.8626865672,0.8474863201,TRUE
1,979,313217,1111.1111111111,505.5555555556,1.1940298507,0.8686567164,0.9896257604,FALSE
1,980,313399,505.5555555556,505.5555555556,0.5432835821,0.5432835821,0.8554031203,TRUE
1,981,313581,505.5555555556,1150,0.5432835821,0.8895522388,0.6672478926,TRUE
1,982,313995,1150,683.3333333333,1.2358208955,0.9850746269,0.9912213062,FALSE
1,983,314241,683.3333333333,850,0.7343283582,0.823880597,0.5280586448,TRUE
1,984,314547,850,488.8888888889,0.9134328358,0.7194029851,0.9944944733,FALSE
1,985,314723,488.8888888889,1094.4444444444,0.5253731343,0.8507462687,0.8339001492,TRUE
1,986,315117,1094.4444444444,766.6666666667,1.176119403,1,0.9786642677,FALSE
1,987,315393,766.6666666667,833.3333333333,0.823880597,0.8597014925,0.1678843687,TRUE
1,988,315693,833.3333333333,738.8888888889,0.8955223881,0.8447761194,0.9940673681,FALSE
1,989,315959,738.8888888889,730.5555555556,0.7940298507,0.7895522388,0.2150355249,TRUE
1,990,316222,730.5555555556,472.2222222222,0.7850746269,0.6462686567,0.9953582937,FALSE
1,991,316392,472.2222222222,997.2222222222,0.5074626866,0.7895522388,0.8279480298,TRUE
1,992,316751,997.2222222222,502.7777777778,1.071641791,0.8059701493,0.9937089738,FALSE
1,993,316932,502.7777777778,1066.6666666667,0.5402985075,0.8432835821,0.7888602067,TRUE
1,994,317316,1066.6666666667,491.6666666667,1.1462686567,0.8373134328,0.9884492255,FALSE
1,995,317493,491.6666666667,1061.1111111111,0.528358209,0.8343283582,0.8191667201,TRUE
1,996,317875,1061.1111111111,486.1111111111,1.1402985075,0.8313432836,0.9938658657,FALSE
1,997,318050,486.1111111111,1075,0.5223880597,0.8388059701,0.8140095817,TRUE
1,998,318437,1075,480.5555555556,1.1552238806,0.8358208955,0.9930932148,FALSE
1,999,318610,480.5555555556,1080.5555555556,0.5164179104,0.8388059701,0.8741616959,TRUE
1,1000,318999,1080.5555555556,494.4444444444,1.1611940299,0.8462686567,0.9746648073,FALSE
1,1001,319177,494.4444444444,1130.5555555556,0.5313432836,0.8731343284,0.809668071,TRUE
1,1002,319584,1130.5555555556,763.8888888889,1.2149253731,1.0179104478,0.9800646208,FALSE
1,1003,319859,763.8888888889,852.7777777778,0.8208955224,0.8686567164,0.2117770861,TRUE
1,1004,320166,852.7777777778,494.4444444444,0.9164179104,0.723880597,0.9990317379,FALSE
1,1005,320344,494.4444444444,963.8888888889,0.5313432836,0.7835820896,0.8244823143,TRUE
1,1006,320691,963.8888888889,722.2222222222,1.0358208955,0.9059701493,0.9724558646,FALSE
1,1007,320951,722.2222222222,783.3333333333,0.776119403,0.8089552239,0.9942921574,FALSE
1,1008,321233,783.3333333333,250,0.8417910448,0.5552238806,0.0758320496,TRUE
1,1009,321323,250,1213.8888888889,0.2686567164,0.7865671642,0.7197935491,TRUE
1,1010,321760,1213.8888888889,733.3333333333,1.3044776119,1.0462686567,0.9794896319,FALSE
1,1011,322024,733.3333333333,855.5555555556,0.7880597015,0.8537313433,0.6039993369,TRUE
1,1012,322332,855.5555555556,719.4444444444,0.9194029851,0.8462686567,0.9893271426,FALSE
1,1013,322591,719.4444444444,819.4444444444,0.7731343284,0.8268656716,0.1663216629,TRUE
1,1014,322886,819.4444444444,494.4444444444,0.8805970149,0.7059701493,0.9977924875,FALSE
1,1015,323064,494.4444444444,1138.8888888889,0.5313432836,0.8776119403,0.839095738,TRUE
1,1016,323474,1138.8888888889,775,1.223880597,1.028358209,0.9976828248,FALSE
1,1017,323753,775,875,0.8328358209,0.8865671642,0.0160826218,TRUE
1,1018,324068,875,786.1111111111,0.9402985075,0.8925373134,0.9977512444,FALSE
1,1019,324351,786.1111111111,738.8888888889,0.8447761194,0.8194029851,0.9725889235,FALSE
1,1020,324617,738.8888888889,727.7777777778,0.7940298507,0.7880597015,0.9884491625,FALSE
1,1021,324879,727.7777777778,752.7777777778,0.7820895522,0.7955223881,0.9741996435,FALSE
1,1022,325150,752.7777777778,200,0.8089552239,0.5119402985,0.4910282748,TRUE
1,1023,325222,200,1116.6666666667,0.2149253731,0.7074626866,0.5285694031,TRUE
1,1024,325624,1116.6666666667,797.2222222222,1.2,1.028358209,0.9878202261,FALSE
1,1025,325911,797.2222222222,780.5555555556,0.8567164179,0.847761194,0.9952493925,FALSE
1,1026,326192,780.5555555556,755.5555555556,0.8388059701,0.8253731343,0.991088454,FALSE
1,1027,326464,755.5555555556,752.7777777778,0.8119402985,0.8104477612,0.9934650408,FALSE
1,1028,326735,752.7777777778,811.1111111111,0.8089552239,0.8402985075,0.5509395718,TRUE
1,1029,327027,811.1111111111,486.1111111111,0.871641791,0.6970149254,0.9842475737,FALSE
1,1030,327202,486.1111111111,1050,0.5223880597,0.8253731343,0.8575318648,TRUE
1,1031,327580,1050,605.5555555556,1.128358209,0.8895522388,0.9858960702,FALSE
1,1032,327798,605.5555555556,1002.7777777778,0.6507462687,0.8641791045,0.8840886735,TRUE
1,1033,328159,1002.7777777778,777.7777777778,1.0776119403,0.9567164179,0.9627556183,FALSE
1,1034,328439,777.7777777778,505.5555555556,0.8358208955,0.6895522388,0.9954421245,FALSE
1,1035,328621,505.5555555556,475,0.5432835821,0.5268656716,0.7796100595,TRUE
1,1036,328792,475,1161.1111111111,0.5104477612,0.8791044776,0.8456911734,TRUE
1,1037,329210,1161.1111111111,725,1.247761194,1.0134328358,0.981333166,FALSE
1,1038,329471,725,825,0.7791044776,0.8328358209,0.4747694494,TRUE
1,1039,329768,825,1672.2222222222,0.8865671642,1.3417910448,0.9867437954,FALSE
1,1040,330370,1672.2222222222,783.3333333333,1.7970149254,1.3194029851,0.9921984117,FALSE
1,1041,330652,783.3333333333,819.4444444444,0.8417910448,0.8611940299,0.9864462965,FALSE
1,1042,330947,819.4444444444,819.4444444444,0.8805970149,0.8805970149,0.9870819945,FALSE
1,1043,331242,819.4444444444,861.1111111111,0.8805970149,0.9029850746,0.9907589833,FALSE
1,1044,331552,861.1111111111,738.8888888889,0.9253731343,0.8597014925,0.9830906923,FALSE
1,1045,331818,738.8888888889,991.6666666667,0.7940298507,0.9298507463,0.279478124,TRUE
1,1046,332175,991.6666666667,947.2222222222,1.0656716418,1.0417910448,0.9952277248,FALSE
1,1047,332516,947.2222222222,897.2222222222,1.0179104478,0.9910447761,0.9926824281,FALSE
1,1048,332839,897.2222222222,905.5555555556,0.9641791045,0.9686567164,0.9840855497,FALSE
1,1049,333165,905.5555555556,977.7777777778,0.9731343284,1.0119402985,0.9939795935,FALSE
1,1050,333517,977.7777777778,891.6666666667,1.0507462687,1.0044776119,0.9844814569,FALSE
1,1051,333838,891.6666666667,916.6666666667,0.9582089552,0.971641791,0.9845053889,FALSE
1,1052,334168,916.6666666667,969.4444444444,0.9850746269,1.0134328358,0.9867602309,FALSE
1,1053,334517,969.4444444444,938.8888888889,1.0417910448,1.0253731343,0.993684285,FALSE
1,1054,334855,938.8888888889,897.2222222222,1.0089552239,0.9865671642,0.9964154804,FALSE
1,1055,335178,897.2222222222,888.8888888889,0.9641791045,0.9597014925,0.987599986,FALSE
1,1056,335498,888.8888888889,833.3333333333,0.9552238806,0.9253731343,0.9829833442,FALSE
1,1057,335798,833.3333333333,861.1111111111,0.8955223881,0.9104477612,0.9910179317,FALSE
1,1058,336108,861.1111111111,877.7777777778,0.9253731343,0.9343283582,0.9937011026,FALSE
1,1059,336424,877.7777777778,911.1111111111,0.9432835821,0.9611940299,0.9856217749,FALSE
1,1060,336752,911.1111111111,877.7777777778,0.9791044776,0.9611940299,0.9846244224,FALSE
1,1061,337068,877.7777777778,819.4444444444,0.9432835821,0.9119402985,0.9556375928,FALSE
1,1062,337363,819.4444444444,813.8888888889,0.8805970149,0.8776119403,0.9881138811,FALSE
1,1063,337656,813.8888888889,811.1111111111,0.8746268657,0.8731343284,0.9925831108,FALSE
1,1064,337948,811.1111111111,802.7777777778,0.871641791,0.8671641791,0.9948946646,FALSE
1,1065,338237,802.7777777778,877.7777777778,0.8626865672,0.9029850746,0.9902908294,FALSE
1,1066,338553,877.7777777778,894.4444444444,0.9432835821,0.952238806,0.9787000945,FALSE
1,1067,338875,894.4444444444,866.6666666667,0.9611940299,0.9462686567,0.995306711,FALSE
1,1068,339187,866.6666666667,886.1111111111,0.9313432836,0.9417910448,0.9909694068,FALSE
1,1069,339506,886.1111111111,872.2222222222,0.952238806,0.9447761194,0.9881623345,FALSE
1,1070,339820,872.2222222222,841.6666666667,0.9373134328,0.9208955224,0.9936197179,FALSE
1,1071,340123,841.6666666667,875,0.9044776119,0.9223880597,0.988726412,FALSE
1,1072,340438,875,955.5555555556,0.9402985075,0.9835820896,0.9866293233,FALSE
1,1073,340782,955.5555555556,927.7777777778,1.0268656716,1.0119402985,0.9943947146,FALSE
1,1074,341116,927.7777777778,950,0.9970149254,1.0089552239,0.9946731927,FALSE
1,1075,341458,950,950,1.0208955224,1.0208955224,0.987479692,FALSE
1,1076,341800,950,863.8888888889,1.0208955224,0.9746268657,0.9961283662,FALSE
1,1077,342111,863.8888888889,888.8888888889,0.928358209,0.9417910448,0.9873093176,FALSE
1,1078,342431,888.8888888889,952.7777777778,0.9552238806,0.9895522388,0.9876327337,FALSE
1,1079,342774,952.7777777778,936.1111111111,1.023880597,1.0149253731,0.9954508558,FALSE
1,1080,343111,936.1111111111,941.6666666667,1.0059701493,1.0089552239,0.9950680124,FALSE
1,1081,343450,941.6666666667,897.2222222222,1.0119402985,0.9880597015,0.9967889618,FALSE
1,1082,343773,897.2222222222,877.7777777778,0.9641791045,0.9537313433,0.9947162523,FALSE
1,1083,344089,877.7777777778,886.1111111111,0.9432835821,0.947761194,0.9881896181,FALSE
1,1084,344408,886.1111111111,825,0.952238806,0.9194029851,0.9717491331,FALSE
1,1085,344705,825,886.1111111111,0.8865671642,0.9194029851,0.9734348706,FALSE
1,1086,345024,886.1111111111,930.5555555556,0.952238806,0.976119403,0.9805196274,FALSE
1,1087,345359,930.5555555556,905.5555555556,1,0.9865671642,0.9844451647,FALSE
1,1088,345685,905.5555555556,911.1111111111,0.9731343284,0.976119403,0.9935638002,FALSE
1,1089,346013,911.1111111111,863.8888888889,0.9791044776,0.9537313433,0.9831689016,FALSE
1,1090,346324,863.8888888889,813.8888888889,0.928358209,0.9014925373,0.9682442584,FALSE
1,1091,346617,813.8888888889,788.8888888889,0.8746268657,0.8611940299,0.9790349761,FALSE
1,1092,346901,788.8888888889,747.2222222222,0.847761194,0.8253731343,0.9888672804,FALSE
1,1093,347170,747.2222222222,802.7777777778,0.8029850746,0.8328358209,0.9903035485,FALSE
1,1094,347459,802.7777777778,819.4444444444,0.8626865672,0.871641791,0.9731884108,FALSE
1,1095,347754,819.4444444444,563.8888888889,0.8805970149,0.7432835821,0.9895740386,FALSE
1,1096,347957,563.8888888889,447.2222222222,0.6059701493,0.5432835821,0.9139337129,FALSE
1,1097,348118,447.2222222222,1102.7777777778,0.4805970149,0.8328358209,0.6567179246,TRUE
1,1098,348515,1102.7777777778,500,1.1850746269,0.8611940299,0.9849269237,FALSE
1,1099,348695,500,983.3333333333,0.5373134328,0.7970149254,0.7608949043,TRUE
1,1100,349049,983.3333333333,586.1111111111,1.0567164179,0.8432835821,0.9921515719,FALSE
1,1101,349260,586.1111111111,916.6666666667,0.6298507463,0.8074626866,0.5075344497,TRUE
1,1102,349590,916.6666666667,508.3333333333,0.9850746269,0.7656716418,0.9976935459,FALSE
1,1103,349773,508.3333333333,977.7777777778,0.5462686567,0.7985074627,0.7305473831,TRUE
1,1104,350125,977.7777777778,513.8888888889,1.0507462687,0.8014925373,0.9960559787,FALSE
1,1105,350310,513.8888888889,969.4444444444,0.552238806,0.7970149254,0.6899619488,TRUE
1,1106,350659,969.4444444444,683.3333333333,1.0417910448,0.8880597015,0.9808801025,FALSE
1,1107,350905,683.3333333333,497.2222222222,0.7343283582,0.6343283582,0.9804093019,FALSE
1,1108,351084,497.2222222222,447.2222222222,0.5343283582,0.5074626866,0.8013000509,TRUE
1,1109,351245,447.2222222222,1136.1111111111,0.4805970149,0.8507462687,0.6959032384,TRUE
1,1110,351654,1136.1111111111,516.6666666667,1.2208955224,0.8880597015,0.9945570324,FALSE
1,1111,351840,516.6666666667,1122.2222222222,0.5552238806,0.8805970149,0.724865021,TRUE
1,1112,352244,1122.2222222222,755.5555555556,1.2059701493,1.0089552239,0.9988496725,FALSE
1,1113,352516,755.5555555556,738.8888888889,0.8119402985,0.8029850746,0.9792036804,FALSE
1,1114,352782,738.8888888889,486.1111111111,0.7940298507,0.6582089552,0.9873315581,FALSE
1,1115,352957,486.1111111111,1638.8888888889,0.5223880597,1.1417910448,0.7887266316,TRUE
1,1116,353547,1638.8888888889,1694.4444444444,1.7611940299,1.7910447761,0.9917315598,FALSE
1,1117,354157,1694.4444444444,1644.4444444444,1.8208955224,1.7940298507,0.9831379056,FALSE
1,1118,354749,1644.4444444444,736.1111111111,1.7671641791,1.2791044776,0.9977975733,FALSE
1,1119,355014,736.1111111111,725,0.7910447761,0.7850746269,0.992161192,FALSE
1,1120,355275,725,733.3333333333,0.7791044776,0.7835820896,0.9963126022,FALSE
1,1121,355539,733.3333333333,755.5555555556,0.7880597015,0.8,0.9897741387,FALSE
1,1122,355811,755.5555555556,844.4444444444,0.8119402985,0.8597014925,0.992739916,FALSE
1,1123,356115,844.4444444444,861.1111111111,0.9074626866,0.9164179104,0.9893045062,FALSE
1,1124,356425,861.1111111111,775,0.9253731343,0.8791044776,0.9767118941,FALSE
1,1125,356704,775,863.8888888889,0.8328358209,0.8805970149,0.1803198735,TRUE
1,1126,357015,863.8888888889,797.2222222222,0.928358209,0.8925373134,0.9832397616,FALSE
1,1127,357302,797.2222222222,755.5555555556,0.8567164179,0.8343283582,0.9945459314,FALSE
1,1128,357574,755.5555555556,838.8888888889,0.8119402985,0.8567164179,0.9774243591,FALSE
1,1129,357876,838.8888888889,938.8888888889,0.9014925373,0.9552238806,0.9660342996,FALSE
1,1130,358214,938.8888888889,797.2222222222,1.0089552239,0.9328358209,0.9772809661,FALSE
1,1131,358501,797.2222222222,916.6666666667,0.8567164179,0.9208955224,0.2238534909,FALSE
1,1132,358831,916.6666666667,847.2222222222,0.9850746269,0.947761194,0.9693578753,FALSE
1,1133,359136,847.2222222222,786.1111111111,0.9104477612,0.8776119403,0.9941015727,FALSE
1,1134,359419,786.1111111111,763.8888888889,0.8447761194,0.8328358209,0.9936200035,FALSE
1,1135,359694,763.8888888889,213.8888888889,0.8208955224,0.5253731343,0.1419168914,TRUE
1,1136,359771,213.8888888889,1200,0.2298507463,0.7597014925,0.8681300046,TRUE
1,1137,360203,1200,763.8888888889,1.2895522388,1.0552238806,0.9835068154,FALSE
1,1138,360478,763.8888888889,944.4444444444,0.8208955224,0.9179104478,0.1138272479,TRUE
1,1139,360818,944.4444444444,822.2222222222,1.0149253731,0.9492537313,0.9924986287,FALSE
1,1140,361114,822.2222222222,758.3333333333,0.8835820896,0.8492537313,0.9932711747,FALSE
1,1141,361387,758.3333333333,744.4444444444,0.8149253731,0.8074626866,0.9969613297,FALSE
1,1142,361655,744.4444444444,186.1111111111,0.8,0.5,0.2552377331,TRUE
1,1143,361722,186.1111111111,1177.7777777778,0.2,0.7328358209,0.8324816807,TRUE
1,1144,362146,1177.7777777778,752.7777777778,1.2656716418,1.0373134328,0.9956751834,FALSE
1,1145,362417,752.7777777778,1005.5555555556,0.8089552239,0.9447761194,0.0655948936,TRUE
1,1146,362779,1005.5555555556,830.5555555556,1.0805970149,0.9865671642,0.9967788036,FALSE
1,1147,363078,830.5555555556,800,0.8925373134,0.876119403,0.9882308917,FALSE
1,1148,363366,800,783.3333333333,0.8597014925,0.8507462687,0.9981697267,FALSE
1,1149,363648,783.3333333333,766.6666666667,0.8417910448,0.8328358209,0.9926302481,FALSE
1,1150,363924,766.6666666667,766.6666666667,0.823880597,0.823880597,0.9714005708,FALSE
1,1151,364200,766.6666666667,786.1111111111,0.823880597,0.8343283582,0.989572834,FALSE
1,1152,364483,786.1111111111,852.7777777778,0.8447761194,0.8805970149,0.9821340244,FALSE
1,1153,364790,852.7777777778,819.4444444444,0.9164179104,0.8985074627,0.9951131114,FALSE
1,1154,365085,819.4444444444,811.1111111111,0.8805970149,0.876119403,0.9925800187,FALSE
1,1155,365377,811.1111111111,833.3333333333,0.871641791,0.8835820896,0.9962330263,FALSE
1,1156,365677,833.3333333333,813.8888888889,0.8955223881,0.8850746269,0.9985200876,FALSE
1,1157,365970,813.8888888889,769.4444444444,0.8746268657,0.8507462687,0.9990570351,FALSE
1,1158,366247,769.4444444444,763.8888888889,0.8268656716,0.823880597,0.9865652186,FALSE
1,1159,366522,763.8888888889,819.4444444444,0.8208955224,0.8507462687,0.9908998345,FALSE
1,1160,366817,819.4444444444,875,0.8805970149,0.9104477612,0.982518035,FALSE
1,1161,367132,875,866.6666666667,0.9402985075,0.9358208955,0.996424674,FALSE
1,1162,367444,866.6666666667,805.5555555556,0.9313432836,0.8985074627,0.9951227616,FALSE
1,1163,367734,805.5555555556,786.1111111111,0.8656716418,0.8552238806,0.9933250383,FALSE
1,1164,368017,786.1111111111,794.4444444444,0.8447761194,0.8492537313,0.9943253327,FALSE
1,1165,368303,794.4444444444,811.1111111111,0.8537313433,0.8626865672,0.9973935256,FALSE
1,1166,368595,811.1111111111,838.8888888889,0.871641791,0.8865671642,0.9966884598,FALSE
1,1167,368897,838.8888888889,852.7777777778,0.9014925373,0.9089552239,0.9966564929,FALSE
1,1168,369204,852.7777777778,838.8888888889,0.9164179104,0.9089552239,0.9935808482,FALSE
1,1169,369506,838.8888888889,802.7777777778,0.9014925373,0.8820895522,0.997822443,FALSE
1,1170,369795,802.7777777778,822.2222222222,0.8626865672,0.8731343284,0.9906754051,FALSE
1,1171,370091,822.2222222222,858.3333333333,0.8835820896,0.9029850746,0.9958891521,FALSE
1,1172,370400,858.3333333333,850,0.9223880597,0.9179104478,0.9955261115,FALSE
1,1173,370706,850,875,0.9134328358,0.9268656716,0.9932519355,FALSE
1,1174,371021,875,911.1111111111,0.9402985075,0.9597014925,0.9882225831,FALSE
1,1175,371349,911.1111111111,883.3333333333,0.9791044776,0.9641791045,0.9969658055,FALSE
1,1176,371667,883.3333333333,905.5555555556,0.9492537313,0.9611940299,0.9865972772,FALSE
1,1177,371993,905.5555555556,869.4444444444,0.9731343284,0.9537313433,0.9739444493,FALSE
1,1178,372306,869.4444444444,805.5555555556,0.9343283582,0.9,0.9908336403,FALSE
1,1179,372596,805.5555555556,908.3333333333,0.8656716418,0.9208955224,0.9905248421,FALSE
1,1180,372923,908.3333333333,991.6666666667,0.976119403,1.0208955224,0.9929668453,FALSE
1,1181,373280,991.6666666667,969.4444444444,1.0656716418,1.0537313433,0.9964756033,FALSE
1,1182,373629,969.4444444444,869.4444444444,1.0417910448,0.9880597015,0.9943271437,FALSE
1,1183,373942,869.4444444444,847.2222222222,0.9343283582,0.9223880597,0.9872746622,FALSE
1,1184,374247,847.2222222222,780.5555555556,0.9104477612,0.8746268657,0.9945004302,FALSE
1,1185,374528,780.5555555556,805.5555555556,0.8388059701,0.852238806,0.9910785289,FALSE
1,1186,374818,805.5555555556,872.2222222222,0.8656716418,0.9014925373,0.9932637354,FALSE
1,1187,375132,872.2222222222,952.7777777778,0.9373134328,0.9805970149,0.9952283894,FALSE
1,1188,375475,952.7777777778,913.8888888889,1.023880597,1.0029850746,0.9747222571,FALSE
1,1189,375804,913.8888888889,997.2222222222,0.9820895522,1.0268656716,0.997890262,FALSE
1,1190,376163,997.2222222222,988.8888888889,1.071641791,1.0671641791,0.9959380593,FALSE
1,1191,376519,988.8888888889,902.7777777778,1.0626865672,1.0164179104,0.9863810093,FALSE
1,1192,376844,902.7777777778,963.8888888889,0.9701492537,1.0029850746,0.9780678032,FALSE
1,1193,377191,963.8888888889,1000,1.0358208955,1.0552238806,0.9863056193,FALSE
1,1194,377551,1000,608.3333333333,1.0746268657,0.8641791045,0.9929701397,FALSE
1,1195,377770,608.3333333333,1327.7777777778,0.6537313433,1.0402985075,0.7644753637,TRUE
1,1196,378248,1327.7777777778,775,1.4268656716,1.1298507463,0.9576496133,FALSE
1,1197,378527,775,919.4444444444,0.8328358209,0.9104477612,0.0024410328,TRUE
1,1198,378858,919.4444444444,827.7777777778,0.9880597015,0.9388059701,0.9637826646,FALSE
1,1199,379156,827.7777777778,830.5555555556,0.8895522388,0.8910447761,0.9911316286,FALSE
1,1200,379455,830.5555555556,936.1111111111,0.8925373134,0.9492537313,0.9957122079,FALSE
1,1201,379792,936.1111111111,547.2222222222,1.0059701493,0.7970149254,0.9858404317,FALSE
1,1202,379989,547.2222222222,491.6666666667,0.5880597015,0.5582089552,0.8382126647,TRUE
1,1203,380166,491.6666666667,1280.5555555556,0.528358209,0.952238806,0.5641586043,TRUE
1,1204,380627,1280.5555555556,491.6666666667,1.376119403,0.952238806,0.9813216536,FALSE
1,1205,380804,491.6666666667,1227.7777777778,0.528358209,0.923880597,0.8101830784,TRUE
1,1206,381246,1227.7777777778,491.6666666667,1.3194029851,0.923880597,0.9864219737,FALSE
1,1207,381423,491.6666666667,458.3333333333,0.528358209,0.5104477612,0.7846614591,TRUE
1,1208,381588,458.3333333333,1300,0.4925373134,0.9447761194,0.7113412768,TRUE
1,1209,382056,1300,777.7777777778,1.3970149254,1.1164179104,0.9908655353,FALSE
1,1210,382336,777.7777777778,1077.7777777778,0.8358208955,0.9970149254,-0.0831864797,TRUE
1,1211,382724,1077.7777777778,497.2222222222,1.1582089552,0.8462686567,0.9765742765,FALSE
1,1212,382903,497.2222222222,1177.7777777778,0.5343283582,0.9,0.8959377662,TRUE
1,1213,383327,1177.7777777778,505.5555555556,1.2656716418,0.9044776119,0.9883218622,FALSE
1,1214,383509,505.5555555556,1263.8888888889,0.5432835821,0.9507462687,0.8918544499,TRUE
1,1215,383964,1263.8888888889,527.7777777778,1.3582089552,0.9626865672,0.9870132508,FALSE
1,1216,384154,527.7777777778,1386.1111111111,0.5671641791,1.028358209,0.848249989,TRUE
1,1217,384653,1386.1111111111,505.5555555556,1.4895522388,1.0164179104,0.9943434667,FALSE
1,1218,384835,505.5555555556,1250,0.5432835821,0.9432835821,0.8462233618,TRUE
1,1219,385285,1250,505.5555555556,1.3432835821,0.9432835821,0.9726351387,FALSE
1,1220,385467,505.5555555556,1280.5555555556,0.5432835821,0.9597014925,0.883022715,TRUE
1,1221,385928,1280.5555555556,505.5555555556,1.376119403,0.9597014925,0.9906488082,FALSE
1,1222,386110,505.5555555556,1388.8888888889,0.5432835821,1.0179104478,0.8983846804,TRUE
1,1223,386610,1388.8888888889,519.4444444444,1.4925373134,1.0253731343,0.9953782619,FALSE
1,1224,386797,519.4444444444,1341.6666666667,0.5582089552,1,0.8493048649,TRUE
1,1225,387280,1341.6666666667,494.4444444444,1.4417910448,0.9865671642,0.9885690164,FALSE
1,1226,387458,494.4444444444,1255.5555555556,0.5313432836,0.9402985075,0.8664537045,TRUE
1,1227,387910,1255.5555555556,763.8888888889,1.3492537313,1.0850746269,0.9790003351,FALSE
1,1228,388185,763.8888888889,1136.1111111111,0.8208955224,1.0208955224,-0.0416701021,TRUE
1,1229,388594,1136.1111111111,550,1.2208955224,0.9059701493,0.9847840319,FALSE
1,1230,388792,550,1283.3333333333,0.5910447761,0.9850746269,0.8240511194,TRUE
1,1231,389254,1283.3333333333,961.1111111111,1.3791044776,1.2059701493,0.9905153303,FALSE
1,1232,389600,961.1111111111,891.6666666667,1.0328358209,0.9955223881,0.9918929768,FALSE
1,1233,389921,891.6666666667,522.2222222222,0.9582089552,0.7597014925,0.9900143195,FALSE
1,1234,390109,522.2222222222,483.3333333333,0.5611940299,0.5402985075,0.7815555525,TRUE
1,1235,390283,483.3333333333,1383.3333333333,0.5194029851,1.0029850746,0.5790394242,TRUE
1,1236,390781,1383.3333333333,769.4444444444,1.4865671642,1.1567164179,0.9904994897,FALSE
1,1237,391058,769.4444444444,1111.1111111111,0.8268656716,1.0104477612,-0.0109067754,TRUE
1,1238,391458,1111.1111111111,544.4444444444,1.1940298507,0.8895522388,0.9964557839,FALSE
1,1239,391654,544.4444444444,450,0.5850746269,0.5343283582,0.762388382,TRUE
1,1240,391816,450,1227.7777777778,0.4835820896,0.9014925373,0.5681673435,TRUE
1,1241,392258,1227.7777777778,755.5555555556,1.3194029851,1.0656716418,0.9840482831,FALSE
1,1242,392530,755.5555555556,1063.8888888889,0.8119402985,0.9776119403,0.0019830152,TRUE
1,1243,392913,1063.8888888889,552.7777777778,1.1432835821,0.8686567164,0.9854455743,FALSE
1,1244,393112,552.7777777778,1283.3333333333,0.5940298507,0.9865671642,0.7316043139,TRUE
1,1245,393574,1283.3333333333,913.8888888889,1.3791044776,1.1805970149,0.9842642711,FALSE
1,1246,393903,913.8888888889,750,0.9820895522,0.8940298507,0.9716902682,FALSE
1,1247,394173,750,983.3333333333,0.8059701493,0.9313432836,0.2847737326,TRUE
1,1248,394527,983.3333333333,950,1.0567164179,1.0388059701,0.9823787479,FALSE
1,1249,394869,950,572.2222222222,1.0208955224,0.8179104478,0.9949813296,FALSE
1,1250,395075,572.2222222222,494.4444444444,0.6149253731,0.5731343284,0.7461302381,TRUE
1,1251,395253,494.4444444444,1286.1111111111,0.5313432836,0.9567164179,0.5410017478,TRUE
1,1252,395716,1286.1111111111,761.1111111111,1.3820895522,1.1,0.9928797091,FALSE
1,1253,395990,761.1111111111,986.1111111111,0.8179104478,0.9388059701,0.0334519233,TRUE
1,1254,396345,986.1111111111,511.1111111111,1.0597014925,0.8044776119,0.9814379737,FALSE
1,1255,396529,511.1111111111,1247.2222222222,0.5492537313,0.9447761194,0.8390510152,TRUE
1,1256,396978,1247.2222222222,541.6666666667,1.3402985075,0.9611940299,0.9991071698,FALSE
1,1257,397173,541.6666666667,1325,0.5820895522,1.0029850746,0.7168177579,TRUE
1,1258,397650,1325,963.8888888889,1.423880597,1.2298507463,0.9888847428,FALSE
1,1259,397997,963.8888888889,758.3333333333,1.0358208955,0.9253731343,0.9936927762,FALSE
1,1260,398270,758.3333333333,225,0.8149253731,0.528358209,0.4055986353,TRUE
1,1261,398351,225,1291.6666666667,0.2417910448,0.8149253731,0.5808249848,TRUE
1,1262,398816,1291.6666666667,763.8888888889,1.3880597015,1.1044776119,0.9941919245,FALSE
1,1263,399091,763.8888888889,1119.4444444444,0.8208955224,1.0119402985,0.0742208954,TRUE
1,1264,399494,1119.4444444444,1044.4444444444,1.2029850746,1.1626865672,0.9946223111,FALSE
1,1265,399870,1044.4444444444,947.2222222222,1.1223880597,1.0701492537,0.9821435698,FALSE
1,1266,400211,947.2222222222,988.8888888889,1.0179104478,1.0402985075,0.9880869167,FALSE
1,1267,400567,988.8888888889,783.3333333333,1.0626865672,0.952238806,0.9943543038,FALSE
1,1268,400849,783.3333333333,1075,0.8417910448,0.9985074627,0.1015035442,TRUE
1,1269,401236,1075,1075,1.1552238806,1.1552238806,0.9891425979,FALSE
1,1270,401623,1075,997.2222222222,1.1552238806,1.1134328358,0.98756245,FALSE
1,1271,401982,997.2222222222,1047.2222222222,1.071641791,1.0985074627,0.9891854875,FALSE
1,1272,402359,1047.2222222222,791.6666666667,1.1253731343,0.9880597015,0.9952640759,FALSE
1,1273,402644,791.6666666667,1000,0.8507462687,0.9626865672,0.3064347195,FALSE
1,1274,403004,1000,975,1.0746268657,1.0611940299,0.9808072765,FALSE
1,1275,403355,975,833.3333333333,1.047761194,0.971641791,0.9904643863,FALSE
1,1276,403655,833.3333333333,283.3333333333,0.8955223881,0.6,-0.0675872635,FALSE
1,1277,403757,283.3333333333,1338.8888888889,0.3044776119,0.871641791,0.8715782945,TRUE
1,1278,404239,1338.8888888889,777.7777777778,1.4388059701,1.1373134328,0.9938182557,FALSE
1,1279,404519,777.7777777778,988.8888888889,0.8358208955,0.9492537313,0.0187593847,TRUE
1,1280,404875,988.8888888889,513.8888888889,1.0626865672,0.8074626866,0.9895062641,FALSE
1,1281,405060,513.8888888889,1247.2222222222,0.552238806,0.9462686567,0.7368790613,TRUE
1,1282,405509,1247.2222222222,613.8888888889,1.3402985075,1,0.9870598328,FALSE
1,1283,405730,613.8888888889,1297.2222222222,0.6597014925,1.0268656716,0.7067474832,TRUE
1,1284,406197,1297.2222222222,947.2222222222,1.3940298507,1.2059701493,0.995486645,FALSE
1,1285,406538,947.2222222222,541.6666666667,1.0179104478,0.8,0.9931834105,FALSE
1,1286,406733,541.6666666667,494.4444444444,0.5820895522,0.5567164179,0.7555523134,TRUE
1,1287,406911,494.4444444444,1219.4444444444,0.5313432836,0.9208955224,0.6979501432,TRUE
1,1288,407350,1219.4444444444,505.5555555556,1.3104477612,0.9268656716,0.998106428,FALSE
1,1289,407532,505.5555555556,1286.1111111111,0.5432835821,0.9626865672,0.7356206279,TRUE
1,1290,407995,1286.1111111111,925,1.3820895522,1.1880597015,0.9972956627,FALSE
1,1291,408328,925,544.4444444444,0.9940298507,0.7895522388,0.995117436,FALSE
1,1292,408524,544.4444444444,497.2222222222,0.5850746269,0.5597014925,0.7638782129,TRUE
1,1293,408703,497.2222222222,1211.1111111111,0.5343283582,0.9179104478,0.6498196552,TRUE
1,1294,409139,1211.1111111111,480.5555555556,1.3014925373,0.9089552239,0.9944761197,FALSE
1,1295,409312,480.5555555556,1244.4444444444,0.5164179104,0.9268656716,0.8025359445,TRUE
1,1296,409760,1244.4444444444,536.1111111111,1.3373134328,0.9567164179,0.9863501203,FALSE
1,1297,409953,536.1111111111,1275,0.576119403,0.9731343284,0.8015226003,TRUE
1,1298,410412,1275,530.5555555556,1.3701492537,0.9701492537,0.9961855036,FALSE
1,1299,410603,530.5555555556,1238.8888888889,0.5701492537,0.9507462687,0.8434074548,TRUE
1,1300,411049,1238.8888888889,500,1.3313432836,0.9343283582,0.996458598,FALSE
1,1301,411229,500,1166.6666666667,0.5373134328,0.8955223881,0.8561479584,TRUE
1,1302,411649,1166.6666666667,505.5555555556,1.2537313433,0.8985074627,0.9831196596,FALSE
1,1303,411831,505.5555555556,1238.8888888889,0.5432835821,0.9373134328,0.8424270742,TRUE
1,1304,412277,1238.8888888889,533.3333333333,1.3313432836,0.952238806,0.9912085499,FALSE
1,1305,412469,533.3333333333,1302.7777777778,0.5731343284,0.9865671642,0.8471460612,TRUE
1,1306,412938,1302.7777777778,500,1.4,0.9686567164,0.9935181149,FALSE
1,1307,413118,500,1188.8888888889,0.5373134328,0.9074626866,0.851515924,TRUE
1,1308,413546,1188.8888888889,494.4444444444,1.2776119403,0.9044776119,0.9720078632,FALSE
1,1309,413724,494.4444444444,1272.2222222222,0.5313432836,0.9492537313,0.8746212856,TRUE
1,1310,414182,1272.2222222222,536.1111111111,1.3671641791,0.971641791,0.9960583886,FALSE
1,1311,414375,536.1111111111,1333.3333333333,0.576119403,1.0044776119,0.8176693603,TRUE
1,1312,414855,1333.3333333333,525,1.4328358209,0.9985074627,0.9908211111,FALSE
1,1313,415044,525,1241.6666666667,0.5641791045,0.9492537313,0.8718026953,TRUE
1,1314,415491,1241.6666666667,497.2222222222,1.3343283582,0.9343283582,0.9878640748,FALSE
1,1315,415670,497.2222222222,1266.6666666667,0.5343283582,0.947761194,0.8481535222,TRUE
1,1316,416126,1266.6666666667,541.6666666667,1.3611940299,0.971641791,0.9970715334,FALSE
1,1317,416321,541.6666666667,1286.1111111111,0.5820895522,0.9820895522,0.8428076706,TRUE
1,1318,416784,1286.1111111111,538.8888888889,1.3820895522,0.9805970149,0.9948849903,FALSE
1,1319,416978,538.8888888889,1266.6666666667,0.5791044776,0.9701492537,0.8218147421,TRUE
1,1320,417434,1266.6666666667,505.5555555556,1.3611940299,0.952238806,0.9936064191,FALSE
1,1321,417616,505.5555555556,1225,0.5432835821,0.9298507463,0.8587551862,TRUE
1,1322,418057,1225,497.2222222222,1.3164179104,0.9253731343,0.9853826744,FALSE
1,1323,418236,497.2222222222,1294.4444444444,0.5343283582,0.9626865672,0.8712445752,TRUE
1,1324,418702,1294.4444444444,552.7777777778,1.3910447761,0.9925373134,0.9914017543,FALSE
1,1325,418901,552.7777777778,1302.7777777778,0.5940298507,0.9970149254,0.8278958489,TRUE
1,1326,419370,1302.7777777778,505.5555555556,1.4,0.971641791,0.9960145353,FALSE
1,1327,419552,505.5555555556,1236.1111111111,0.5432835821,0.9358208955,0.8725970627,TRUE
1,1328,419997,1236.1111111111,486.1111111111,1.328358209,0.9253731343,0.9954828902,FALSE
1,1329,420172,486.1111111111,1255.5555555556,0.5223880597,0.9358208955,0.8583150049,TRUE
1,1330,420624,1255.5555555556,541.6666666667,1.3492537313,0.9656716418,0.9934026098,FALSE
1,1331,420819,541.6666666667,1313.8888888889,0.5820895522,0.9970149254,0.8296633544,TRUE
1,1332,421292,1313.8888888889,511.1111111111,1.4119402985,0.9805970149,0.9977228888,FALSE
1,1333,421476,511.1111111111,1255.5555555556,0.5492537313,0.9492537313,0.8680546881,TRUE
1,1334,421928,1255.5555555556,502.7777777778,1.3492537313,0.9447761194,0.9866770542,FALSE
1,1335,422109,502.7777777778,1200,0.5402985075,0.9149253731,0.8581149085,TRUE
1,1336,422541,1200,497.2222222222,1.2895522388,0.9119402985,0.9840415788,FALSE
1,1337,422720,497.2222222222,1330.5555555556,0.5343283582,0.9820895522,0.8201249323,TRUE
1,1338,423199,1330.5555555556,519.4444444444,1.4298507463,0.9940298507,0.9867384683,FALSE
1,1339,423386,519.4444444444,1280.5555555556,0.5582089552,0.9671641791,0.8451335919,TRUE
1,1340,423847,1280.5555555556,511.1111111111,1.376119403,0.9626865672,0.9959468551,FALSE
1,1341,424031,511.1111111111,1233.3333333333,0.5492537313,0.9373134328,0.8950279557,TRUE
1,1342,424475,1233.3333333333,497.2222222222,1.3253731343,0.9298507463,0.9759605019,FALSE
1,1343,424654,497.2222222222,1341.6666666667,0.5343283582,0.9880597015,0.8499397818,TRUE
1,1344,425137,1341.6666666667,536.1111111111,1.4417910448,1.0089552239,0.9884476466,FALSE
1,1345,425330,536.1111111111,1311.1111111111,0.576119403,0.9925373134,0.8098458372,TRUE
1,1346,425802,1311.1111111111,505.5555555556,1.4089552239,0.976119403,0.9893878421,FALSE
1,1347,425984,505.5555555556,1200,0.5432835821,0.9164179104,0.8734290652,TRUE
1,1348,426416,1200,505.5555555556,1.2895522388,0.9164179104,0.9936131473,FALSE
1,1349,426598,505.5555555556,1230.5555555556,0.5432835821,0.9328358209,0.8621458363,TRUE
1,1350,427041,1230.5555555556,541.6666666667,1.3223880597,0.952238806,0.9909095143,FALSE
1,1351,427236,541.6666666667,1244.4444444444,0.5820895522,0.9597014925,0.7892890596,TRUE
1,1352,427684,1244.4444444444,963.8888888889,1.3373134328,1.1865671642,0.9797242404,FALSE
1,1353,428031,963.8888888889,961.1111111111,1.0358208955,1.0343283582,0.9940981696,FALSE
1,1354,428377,961.1111111111,530.5555555556,1.0328358209,0.8014925373,0.9773666177,FALSE
1,1355,428568,530.5555555556,1194.4444444444,0.5701492537,0.9268656716,0.8040641608,TRUE
1,1356,428998,1194.4444444444,936.1111111111,1.2835820896,1.1447761194,0.9859303245,FALSE
1,1357,429335,936.1111111111,991.6666666667,1.0059701493,1.0358208955,0.9941116721,FALSE
1,1358,429692,991.6666666667,952.7777777778,1.0656716418,1.0447761194,0.9962438107,FALSE
1,1359,430035,952.7777777778,555.5555555556,1.023880597,0.8104477612,0.9841298611,FALSE
1,1360,430235,555.5555555556,1230.5555555556,0.5970149254,0.9597014925,0.8293066357,TRUE
1,1361,430678,1230.5555555556,961.1111111111,1.3223880597,1.1776119403,0.9897751899,FALSE
1,1362,431024,961.1111111111,963.8888888889,1.0328358209,1.0343283582,0.990697961,FALSE
1,1363,431371,963.8888888889,1000,1.0358208955,1.0552238806,0.9928576431,FALSE
1,1364,431731,1000,1008.3333333333,1.0746268657,1.0791044776,0.9853364551,FALSE
1,1365,432094,1008.3333333333,991.6666666667,1.0835820896,1.0746268657,0.9932707448,FALSE
1,1366,432451,991.6666666667,955.5555555556,1.0656716418,1.0462686567,0.9879170006,FALSE
1,1367,432795,955.5555555556,1008.3333333333,1.0268656716,1.0552238806,0.9866609089,FALSE
1,1368,433158,1008.3333333333,544.4444444444,1.0835820896,0.8343283582,0.9888353621,FALSE
1,1369,433354,544.4444444444,1316.6666666667,0.5850746269,1,0.8238194287,TRUE
1,1370,433828,1316.6666666667,1113.8888888889,1.4149253731,1.3059701493,0.9916962844,FALSE
1,1371,434229,1113.8888888889,1038.8888888889,1.1970149254,1.1567164179,0.9944805396,FALSE
1,1372,434603,1038.8888888889,1016.6666666667,1.1164179104,1.1044776119,0.9836348254,FALSE
1,1373,434969,1016.6666666667,1016.6666666667,1.0925373134,1.0925373134,0.9781670606,FALSE
1,1374,435335,1016.6666666667,533.3333333333,1.0925373134,0.8328358209,0.9844996081,FALSE
1,1375,435527,533.3333333333,1338.8888888889,0.5731343284,1.0059701493,0.8332278229,TRUE
1,1376,436009,1338.8888888889,1072.2222222222,1.4388059701,1.2955223881,0.9953572761,FALSE
1,1377,436395,1072.2222222222,563.8888888889,1.152238806,0.8791044776,0.9929824651,FALSE
1,1378,436598,563.8888888889,1272.2222222222,0.6059701493,0.9865671642,0.7962137359,TRUE
1,1379,437056,1272.2222222222,1030.5555555556,1.3671641791,1.2373134328,0.9928118907,FALSE
1,1380,437427,1030.5555555556,530.5555555556,1.1074626866,0.8388059701,0.9954826904,FALSE
1,1381,437618,530.5555555556,1316.6666666667,0.5701492537,0.9925373134,0.8205306074,TRUE
1,1382,438092,1316.6666666667,569.4444444444,1.4149253731,1.0134328358,0.9874981371,FALSE
1,1383,438297,569.4444444444,3088.8888888889,0.6119402985,1.9656716418,0.7927560586,TRUE
1,1384,439409,3088.8888888889,522.2222222222,3.3194029851,1.9402985075,0.9958520605,FALSE
1,1385,439597,522.2222222222,1813.8888888889,0.5611940299,1.2552238806,0.7978648675,TRUE
1,1386,440250,1813.8888888889,550,1.9492537313,1.2701492537,0.9733688587,FALSE
1,1387,440448,550,1336.1111111111,0.5910447761,1.0134328358,0.7633892123,TRUE
1,1388,440929,1336.1111111111,519.4444444444,1.4358208955,0.9970149254,0.9781269147,FALSE
1,1389,441116,519.4444444444,1261.1111111111,0.5582089552,0.9567164179,0.7573740954,TRUE
1,1390,441570,1261.1111111111,500,1.3552238806,0.9462686567,0.9866805147,FALSE
1,1391,441750,500,1266.6666666667,0.5373134328,0.9492537313,0.786015614,TRUE
1,1392,442206,1266.6666666667,544.4444444444,1.3611940299,0.9731343284,0.9758736503,FALSE
1,1393,442402,544.4444444444,1336.1111111111,0.5850746269,1.0104477612,0.8042707303,TRUE
1,1394,442883,1336.1111111111,525,1.4358208955,1,0.9869928734,FALSE
1,1395,443072,525,1291.6666666667,0.5641791045,0.976119403,0.7786175057,TRUE
1,1396,443537,1291.6666666667,500,1.3880597015,0.9626865672,0.9852193918,FALSE
1,1397,443717,500,1241.6666666667,0.5373134328,0.9358208955,0.8236615313,TRUE
1,1398,444164,1241.6666666667,527.7777777778,1.3343283582,0.9507462687,0.9740918235,FALSE
1,1399,444354,527.7777777778,1305.5555555556,0.5671641791,0.9850746269,0.7397318842,TRUE
1,1400,444824,1305.5555555556,1011.1111111111,1.4029850746,1.2447761194,0.9806643371,FALSE
1,1401,445188,1011.1111111111,552.7777777778,1.0865671642,0.8402985075,0.9662489066,FALSE
1,1402,445387,552.7777777778,1197.2222222222,0.5940298507,0.9402985075,0.7737535222,TRUE
1,1403,445818,1197.2222222222,505.5555555556,1.2865671642,0.9149253731,0.9964717797,FALSE
1,1404,446000,505.5555555556,1244.4444444444,0.5432835821,0.9402985075,0.7783998486,TRUE
1,1405,446448,1244.4444444444,566.6666666667,1.3373134328,0.9731343284,0.9839675163,FALSE
1,1406,446652,566.6666666667,1205.5555555556,0.6089552239,0.952238806,0.8095277856,TRUE
