"epoch","stage","start_sample","end_sample","delta_power","theta_power","alpha_power","sigma_power","beta_power"
1,"N3",1,3000,482936.86718394,79570.9082398844,9672.5325467442,3588.4224424051,7643.8383855584
2,"N3",3001,6000,279084.045488919,35864.1812483533,15072.9183012829,9774.5283508598,26565.488145312
3,"N3",6001,9000,393678.862231013,21979.4903063337,33456.2470399867,5059.8446015763,12004.4780691538
4,"N3",9001,12000,150975.403516156,23069.7961008015,44380.8751786519,2739.2272856788,6678.1436017259
5,"N3",12001,15000,160453.704825082,51216.9095792214,38121.1158331428,3135.8431137698,5798.8021949493
6,"N3",15001,18000,331319.229317673,94894.6939759098,11145.399431396,3637.7169080987,8150.5852093663
7,"N3",18001,21000,538553.487947598,52184.7204775006,18468.633514754,8585.3175924532,27902.0261419509
8,"N3",21001,24000,486441.523233984,43253.7258258654,7291.2888290523,3279.3628046947,7295.0407683444
9,"N3",24001,27000,223175.796328008,47419.0359704605,9153.8489430073,3145.4872433945,7753.7126836101
10,"N3",27001,30000,372978.663952571,33750.9456622187,10044.4599729546,5340.4414968226,15499.2037638375
11,"N3",30001,33000,451011.113343061,30375.8271769136,11851.6850803109,5128.0625207496,11911.8010269606
12,"N3",33001,36000,487728.395299908,40579.1363340794,10175.9977840405,5417.6272011081,13719.1152162129
13,"N3",36001,39000,452485.402296683,52080.6867897133,10647.6732017052,4544.5356758638,10842.1943202975
14,"N3",39001,42000,304720.699190153,37160.1758231244,8371.1873114475,4855.0173981084,9925.8187780074
15,"N3",42001,45000,145252.647679635,16350.1352819686,4721.8158490951,2769.6178528836,6276.0370049239
16,"N3",45001,48000,289932.17435791,28795.9340359567,9566.4134405392,4211.5681952018,10035.7159834241
17,"N3",48001,51000,151426.198941551,24131.7487178314,8124.8899005504,3836.7296770135,7507.8525362838
18,"N3",51001,54000,297044.701389577,35306.5610182456,11171.6792302131,4879.1785322955,12608.0845608772
19,"N3",54001,57000,250214.462729057,32646.6920446246,9106.7781250618,3956.445099327,7371.6123492076
20,"N3",57001,60000,141440.960735582,21226.4718546267,7366.4396206108,3871.4537578173,12353.185330422
21,"N3",60001,63000,191091.669172229,16953.686045399,6881.9629899208,3062.0857225717,7213.8115862373
22,"N3",63001,66000,96939.0678182543,17307.6807409998,6470.6263276796,2965.9580829581,5252.9587484523
23,"N3",66001,69000,93881.6523673555,12944.0340199976,8127.0493020851,3748.6673652965,9291.8381843176
24,"N3",69001,72000,67376.8993024592,12962.4394409601,6703.1892642349,3548.5967510196,8276.746963644
25,"N3",72001,75000,153465.41898666,21145.6652642071,5792.5922388103,2916.2260548653,6176.7951387975
26,"N3",75001,78000,256491.150659251,19571.7010956162,7307.674136488,3228.050658336,7352.7936909232
27,"N1",78001,81000,185288.886061123,22051.2966689455,8351.2233342487,4292.3549150129,9212.298553636
28,"N3",81001,84000,92123.1190998879,16343.5168428582,7367.8360651686,3540.7239162863,8470.5574970525
29,"N3",84001,87000,176960.876988803,22000.4980786011,8073.5070668129,3549.3614192581,7740.3125334879
30,"N3",87001,90000,274534.967937338,27599.4910215777,8242.6305915469,4166.4651847283,7853.5076320873
31,"N3",90001,93000,196401.580891184,22455.1423285257,8152.0261010375,4316.0492579736,8488.7247420858
32,"N3",93001,96000,67742.7183038574,21047.9557838444,7599.7041397689,3552.8774635872,8492.0669974826
33,"N3",96001,99000,131028.223516817,16844.1869891717,7380.3321267838,3508.2970401708,7296.1931257929
34,"N1",99001,102000,101807.754935828,17027.1845203877,7279.9401753668,3545.0936902523,7918.7096832476
35,"N3",102001,105000,115403.134575283,19288.1273946702,7250.4138958457,2641.9205883434,5731.739493893
36,"N3",105001,108000,280843.373356396,27154.2527112928,8332.0370632506,3343.3313395273,7493.0857569895
37,"N3",108001,111000,202532.13791538,18525.0989100223,8422.2106944194,4155.8704269386,11236.4438291753
38,"N3",111001,114000,180133.904158126,22398.1459145583,8735.8338951723,3443.882511273,6445.0426000954
39,"N3",114001,117000,71793.014456714,18332.2064914977,7135.0658384956,3603.8322272066,9802.3690128675
40,"N3",117001,120000,156723.391420362,20709.8779744736,7543.7383156585,3316.4754964614,9084.4783735894
41,"N3",120001,123000,264706.070150032,26022.6755147431,9528.4923657592,3820.9173362473,8348.1313062517
42,"N3",123001,126000,214930.716848628,18907.5698635729,7166.0647966508,2817.8486477966,7136.1412865937
43,"N3",126001,129000,326454.126888875,24668.2865709088,7088.1376889312,3590.3150998697,8301.3027948051
44,"N3",129001,132000,200255.476961683,23095.2230436545,7685.6992611598,3914.7311476887,10271.143094826
45,"N3",132001,135000,106366.51930582,11340.919006099,6198.0825711363,2376.9123239894,5223.9498039008
46,"N3",135001,138000,145329.126403351,25980.087407408,8541.5148569062,4079.2758795029,11133.7800295131
47,"N3",138001,141000,99691.2183011521,17292.2198298867,8879.3580856353,3839.2839743106,9225.5597355737
48,"N3",141001,144000,123411.107787188,18521.8718289212,7468.8995635087,3478.8627412635,10756.3528471704
49,"N3",144001,147000,266396.432329727,22771.4465516128,9637.2496101513,4198.3821798285,9356.5971831469
50,"N3",147001,150000,215700.574104298,19755.3563847852,7168.4816379093,3114.0527918715,6160.541180685
51,"N3",150001,153000,112182.19830257,21887.5094743012,6749.1593736048,2802.9411810379,6388.0249108567
52,"N3",153001,156000,194260.541301954,16813.8356156772,7891.2201853918,3293.5834205613,7528.1836023511
53,"N1",156001,159000,125040.182498982,21314.5219575737,8468.0950339416,3442.5709348781,9055.9079196692
54,"N3",159001,162000,182088.171728266,19629.0733063578,8596.0441404093,4633.4146682668,10865.4064195063
55,"N3",162001,165000,128322.557531905,25024.0928192789,8666.1870881273,4866.2877967786,11110.9177824803
56,"N3",165001,168000,223598.042343242,23031.8637768894,8416.7875385425,4035.6734071695,10090.0427956412
57,"N3",168001,171000,121124.278573285,20108.6465529554,9742.343016019,4386.8181206931,12796.2762698144
58,"N1",171001,174000,51130.5359213727,38674.4932440056,8700.3252516807,3794.128145979,9593.0153157029
59,"N1",174001,177000,36421.0820268884,20049.4589237665,8305.400012119,2753.6204655188,6826.5997328831
60,"N3",177001,180000,173440.065273557,18132.8930511925,7357.4034485357,2927.233954087,7537.4639356618
61,"N3",180001,183000,138736.436225554,20092.5705552563,7915.72159497,3280.4495339074,7266.6157178489
62,"N3",183001,186000,146632.029912002,22466.3189783929,7210.6342153412,3082.1424447624,6389.4793374668
63,"N1",186001,189000,64104.5207942759,15057.8359948366,5916.622717524,2752.7932424691,7006.5583288772
64,"N3",189001,192000,158190.877171455,19565.739890062,7646.9992895182,3118.7797032046,7434.4950741386
65,"N3",192001,195000,159002.966269973,16773.3349998924,6054.3096434549,2951.0620689969,7311.2242899203
66,"N3",195001,198000,226312.980893123,26253.6683509834,9345.5202177171,4760.1403534579,12340.2734732049
67,"N3",198001,201000,389780.947232295,32617.1012244189,10871.8464764172,5300.2566358409,15059.973470637
68,"N3",201001,204000,224633.627975118,25042.820219531,16819.3563202127,4632.7255611018,9913.7781202085
69,"N3",204001,207000,561188.348709896,51517.203610352,15374.5704650559,5899.219755635,15409.6600751053
70,"N3",207001,210000,265633.602068659,26170.8624610519,9100.280025341,4550.7689144763,13674.7455916027
71,"N3",210001,213000,611606.819704489,44017.948512841,15139.8777067882,7136.5166017683,19618.7047406421
72,"N1",213001,216000,169274.9479045,14862.6971085184,7709.9139961047,3681.4905650494,8052.9717289122
73,"N3",216001,219000,239117.161816069,23909.9528469153,7518.1562464985,3128.4461468501,7621.7935583212
74,"N3",219001,222000,112523.260612011,15841.1932139975,6149.0942496749,2989.9468298806,5475.8489284792
75,"N3",222001,225000,185634.871392566,22521.1106178023,7991.2434788734,3020.2775794122,6184.1128541991
76,"N3",225001,228000,78757.4420220689,17164.5760800051,5578.3059870857,2189.9903228209,5929.4287776319
77,"N3",228001,231000,165040.376309485,21332.6166662132,8636.5744750398,3224.5582064095,7392.7829731635
78,"N3",231001,234000,235490.914847907,23565.747214867,8316.1070166244,3443.6360017517,7617.1262114313
79,"N3",234001,237000,175630.391707411,18882.1511584753,8445.9706329791,4250.520654749,10458.5100862056
80,"N1",237001,240000,75602.6340635056,17235.4076594972,7832.5511336506,3752.9568885689,9149.7022167798
81,"N3",240001,243000,148756.827810578,18628.2630017808,7485.5905216318,3182.4298478828,8748.3196705077
82,"N3",243001,246000,105553.1886212,13223.3031961456,7355.9693922034,3202.1343097098,8715.3445084493
83,"N3",246001,249000,215005.053702223,15790.4072892318,7815.4902614841,2693.2375462664,7272.2349744752
84,"N3",249001,252000,204416.463424936,21592.1267334956,7357.0390660995,3519.8964845752,7802.3253603829
85,"N3",252001,255000,265017.422997755,24045.667806434,9369.519487004,4531.1614547322,13381.9980404791
86,"N3",255001,258000,306703.177680075,34487.4343233054,10594.8164198998,5165.1423964249,13468.2412229387
87,"N3",258001,261000,503242.483419593,42937.1418381479,12550.4507647696,7188.8288922901,16659.1094294763
88,"N3",261001,264000,438271.394653982,37634.2891142297,15031.5982937006,7484.3949111653,22054.3460376736
89,"N3",264001,267000,341479.428824359,31928.890628909,13316.1778460274,7985.0977664423,26195.5423067872
90,"N3",267001,270000,614286.273636642,49833.5915487455,14826.4730114974,8809.9497038708,21887.3824175225
91,"N3",270001,273000,567414.055841693,64113.5121516571,21052.7690346851,10556.7979187414,37128.3803996668
92,"N3",273001,276000,646298.628731353,68002.065691386,23067.3704390772,12514.6462656322,36395.8356595589
93,"N3",276001,279000,592258.786722115,82532.0974300716,22289.307673316,11352.0985507156,27358.1070789345
94,"N3",279001,282000,621812.276682738,83922.0004370657,24011.0433247543,13162.852645958,33422.5770553917
95,"N3",282001,285000,608721.989887706,87832.9079058525,22726.7564930024,11413.5177539058,29058.3189897867
96,"N3",285001,288000,483735.021907365,50181.4999203297,15437.8883235839,8758.242101554,24151.5114101867
97,"N3",288001,291000,398694.294471783,52804.8760005191,11150.2456202437,5431.371162476,10757.8878393818
98,"N3",291001,294000,346389.065710963,43635.1146860413,11567.9831029936,5260.6402682309,12895.641180334
99,"N3",294001,297000,404951.306045414,42277.7089750458,13913.1906619856,6923.5954970951,20766.7745675493
100,"N3",297001,3e+05,317993.668100243,44280.9214392605,13259.0554543798,6206.3977480447,17254.4727611755
101,"N3",300001,303000,523912.52036804,45556.3268985272,12387.2550170367,5725.4034138785,13295.7675027327
102,"N3",303001,306000,311652.315223987,54557.4939496384,9371.0203558701,4130.2893898802,7337.8802549777
103,"N3",306001,309000,380722.59195584,40599.0540512531,9835.3680875971,5522.6074397848,11237.5564104639
104,"N3",309001,312000,471555.68732215,47823.3091453673,12456.5151137943,6354.3831492214,18590.1859544263
105,"N3",312001,315000,364757.728220699,27066.692179777,8933.8279726283,3698.1731777147,7394.7610198015
106,"N3",315001,318000,348366.332424634,31615.1153858132,12616.4899670274,6730.2510118173,22458.5228576313
107,"N3",318001,321000,851548.061970902,45717.7624310414,15592.6123645493,7383.5985100479,24125.3407063661
108,"N3",321001,324000,526428.790330558,59464.6812238796,13472.6159711671,5681.9902806825,12297.8034364698
109,"N3",324001,327000,185879.806577183,25361.3795791879,7983.2670019566,3492.7746654742,6431.7524610322
110,"N3",327001,330000,258507.367514222,31285.5393068238,8978.5928628108,4274.2859374923,8112.4495830344
111,"N3",330001,333000,113464.812228209,18284.4063223646,6468.681143335,3346.9740004951,7501.341639322
112,"N3",333001,336000,981557.919939463,58013.3110303271,14095.6080525716,5627.6342555911,10553.4940208157
113,"N1",336001,339000,671531.046893025,44647.0915035644,14125.145155318,6532.5002530365,13706.5665629931
114,"N1",339001,342000,898275.788430551,71251.1812282931,18303.798256067,6655.686749247,12919.9138868429
115,"N1",342001,345000,617256.549555837,31618.6417630584,11201.392534119,5823.1923628369,14525.2905301983
116,"N3",345001,348000,409482.002922057,47610.8263134736,14463.7930568171,4913.6826316282,8418.2636074723
117,"N3",348001,351000,169844.477713712,36441.7890534062,10003.4063700656,5031.5024937821,11524.1530703176
118,"N3",351001,354000,311034.966514904,29460.2971938665,9010.494858478,4995.5915483072,13750.6658203749
119,"N3",354001,357000,294658.284721941,25781.8129971498,8698.4508953881,4141.7483195369,9034.6715401361
120,"N3",357001,360000,332845.056404787,36576.3018922229,10399.6911155695,5056.474771678,8375.3212034103
121,"N3",360001,363000,125147.634380667,19164.2367665834,8655.0176069493,3135.9877453029,9063.6530090392
122,"N3",363001,366000,117243.212671923,19134.9425587687,6994.7649651006,3542.6117294072,7843.1892511176
123,"N3",366001,369000,233596.849798923,29732.6201414622,6876.8840754326,3049.3427466654,6542.6382074787
124,"N3",369001,372000,261539.315777542,28621.4325439897,9036.7217509342,4387.3909311903,8274.4333704412
125,"N3",372001,375000,182172.743784145,27133.529115555,9723.3815552165,5084.540097349,12530.7709054319
126,"N3",375001,378000,226174.476145486,29589.5712250261,10570.8686725308,3824.8455556471,8800.73430969
127,"N3",378001,381000,233765.138895946,24221.9281553373,9127.6938350988,3360.3029550636,7205.0124404889
128,"N3",381001,384000,254362.471102079,38372.8046209021,10454.9777221157,4744.553456539,12241.3069575721
129,"N3",384001,387000,530808.275041949,39835.2875927053,12061.2599674336,5803.8964140986,13573.437961634
130,"N3",387001,390000,324617.792893273,42692.4017696183,10508.0517359619,5116.653814974,7994.2318418425
131,"N3",390001,393000,454430.350003417,48333.9798881901,9613.202466327,4391.6154236954,8502.3436437602
132,"N3",393001,396000,230412.684965203,32763.9793922421,9237.0683220739,4021.6903552649,8477.0888065113
133,"N3",396001,399000,201388.93198844,30993.8657669817,8681.5292755194,3847.5200213743,8812.2436333492
134,"N3",399001,402000,142897.273645993,24442.7079071877,8939.4790379175,3797.8981098326,9307.4094474351
135,"N3",402001,405000,205322.657870651,32785.0389842468,7112.4188573977,3198.4556991373,5876.816576995
136,"N3",405001,408000,195695.383545675,17574.1649013524,6768.2615406873,3725.3260231754,8449.6949975411
137,"N3",408001,411000,291257.975723715,32358.3801236305,8704.7046152552,4409.5594901311,8070.7177788762
138,"N3",411001,414000,206311.315117598,32848.8701627946,7719.6838141187,3433.371204078,6581.8140431561
139,"N3",414001,417000,182856.597353694,26780.7617623788,8452.8487209822,4244.7543568518,7954.3210068887
140,"N3",417001,420000,135835.92101399,20481.7275173789,9453.8744548803,4055.9207298215,8958.7181182334
141,"N3",420001,423000,239590.57396815,33709.0753609571,9636.462533375,5127.6510324996,10521.3937389606
142,"N3",423001,426000,163970.228521565,21346.7235743146,7768.7965891847,3945.479867773,8235.3765172858
143,"N3",426001,429000,331481.429499533,37197.4786260014,10403.2748700861,5832.5884082668,14255.4521345176
144,"N3",429001,432000,278363.258213701,29106.5004506038,9813.5972182607,4893.5981007147,9296.0927030712
145,"N3",432001,435000,209737.439143226,26816.2679766662,8122.3842724386,4037.6691795786,8906.1919674774
146,"N3",435001,438000,246490.172558729,28716.9738726209,8881.1075870064,4154.0969459991,10341.5518752628
147,"N3",438001,441000,222324.098859109,30060.9798886552,10468.6178194713,5114.0581310115,13750.8717015372
148,"N3",441001,444000,305534.269371433,32128.3634864139,11793.8934481545,5964.5234735118,15380.8411462578
149,"N3",444001,447000,208349.814350799,29750.904962558,9107.4785290341,3734.6328779449,7994.1524485513
150,"N3",447001,450000,254057.826805894,30998.3894885755,8921.2945349263,4793.4572029467,12091.5213986912
151,"N3",450001,453000,285552.972449016,19673.272218784,8773.1290666474,4845.915803457,10291.2697030959
152,"N3",453001,456000,235285.186310736,31166.740643298,11631.5390854822,5508.8610783064,14243.8650706885
153,"N1",456001,459000,539090.098661809,73811.334660371,33367.8393330703,17437.2314838513,56580.909623317
154,"N3",459001,462000,305446.434095639,48584.5177376645,17276.3834508615,12509.9054274535,30471.1696497775
155,"N3",462001,465000,420405.235970941,33854.7287562294,13397.183417454,5955.4382629665,17237.3296895565
156,"N3",465001,468000,417293.407772513,43783.8827555866,19039.4642411088,10310.1012777032,27999.7902475087
157,"N3",468001,471000,433784.737982075,31877.923382172,12061.1867473469,5897.3007175567,16097.4481538603
158,"N3",471001,474000,392017.252936191,46820.2840999471,15183.2859964475,8867.3796390834,22671.1896630444
159,"N3",474001,477000,523089.544269007,73431.5739679931,20692.7256854154,12669.3552844659,28401.3322200722
160,"N3",477001,480000,570208.346226202,78197.0741592897,21407.807166969,11716.8003381903,30172.8479684479
161,"N3",480001,483000,494703.240044617,44887.3929209349,17867.2510798005,10810.3361871254,30057.220310573
162,"N3",483001,486000,507683.871499832,56488.946139785,21149.4449426363,12875.6223252443,39966.8786260977
163,"N3",486001,489000,420262.463159615,38170.6190661897,20588.2675094316,12680.6040895551,35407.3373989774
164,"N3",489001,492000,315914.92878872,31206.6138727946,11558.7505205657,6452.8060028657,18495.2470725077
165,"N3",492001,495000,340466.219643374,34814.0155313291,12186.29128586,6580.1092986746,18431.4752382044
166,"N3",495001,498000,350315.867399314,50452.4546019032,15976.4893759878,9355.6294505286,27828.7539200572
167,"N3",498001,501000,417751.660397688,52656.0880639586,19277.2221363524,11300.4630983176,33999.9094830577
168,"N3",501001,504000,409293.142325462,64464.3161026523,18905.4098878354,11791.9656294315,30569.2181725934
169,"N3",504001,507000,146246.247752699,28362.8065362098,8243.2476215638,3959.7832993638,10261.3170813598
170,"N3",507001,510000,238817.957854543,37121.5637076164,8981.0445883054,3738.8951942862,8131.1980104815
171,"N3",510001,513000,222264.997915932,40069.0772333501,10246.8540864922,4654.9730350587,11554.9671164959
172,"N3",513001,516000,187435.17435825,27504.1203557611,7871.9476680776,3582.3181941546,7872.2693682294
173,"N3",516001,519000,136175.988855462,28240.4114189038,8487.0957206694,3983.0630219129,8809.7839345221
174,"N3",519001,522000,193059.291038894,20566.7158662803,8848.6779184063,4129.0927498624,12149.5223001836
175,"N3",522001,525000,288095.7465123,30559.6791054937,8842.5694775231,4614.6990679659,11630.6935399476
176,"N3",525001,528000,225719.284182098,31160.4615684578,7697.6099259619,3927.2579176755,10126.6673270467
177,"N3",528001,531000,351254.662933061,34491.0956449274,11305.4868332604,6186.5775031958,13487.0583011316
178,"N3",531001,534000,394084.925628794,44649.616800237,11930.5577659223,5960.8969336593,15572.0469249598
179,"N3",534001,537000,332049.26222569,28830.8648459669,12086.6612690915,4711.9597029275,12100.0849210904
180,"N3",537001,540000,222693.826185499,30911.7324607992,11874.4027152756,6838.0105686175,15990.2312003389
181,"N3",540001,543000,312329.399293489,33711.6800094814,16410.825984584,10374.6442204238,32366.6208416204
182,"N3",543001,546000,603709.798866919,40178.007882692,22094.1153318824,16451.7561341101,59135.1032906839
183,"N3",546001,549000,375458.162269763,39976.94243979,17690.0308871534,10084.8050038042,36898.814214228
184,"N3",549001,552000,378081.036662197,37282.925750784,14927.000879388,7313.1141496526,17131.1153810437
185,"N3",552001,555000,353183.800776473,38823.9852619841,11855.2659708519,6364.7332428807,14083.7327528295
186,"N3",555001,558000,218948.857942314,25408.4678308089,9499.9887240944,4672.424323536,11780.650003562
187,"N3",558001,561000,343361.976109063,26802.3704225212,10708.3057272943,4304.0118866312,9996.7746059154
188,"N3",561001,564000,521671.958770094,37325.6938925502,12362.6809129652,6282.7048652067,12634.0445364793
189,"N3",564001,567000,229684.056885942,21055.730397569,10561.9628964996,5337.7428507014,11796.7158270629
190,"N3",567001,570000,392576.306567215,46759.9434297334,15509.9154620207,6602.305196891,17816.2241003324
191,"N3",570001,573000,393344.419646295,35711.4949755296,12000.0557932112,5860.5616864499,13942.343291169
192,"N3",573001,576000,398791.677177265,28711.0362812103,10861.2707563612,6141.2801109609,13151.9115176375
193,"N1",576001,579000,368245.201962433,38999.8438312262,11667.0454865923,7030.3268199146,17653.9897907261
194,"N3",579001,582000,339780.259382964,37043.3805012938,13370.6415384888,5029.7627810784,11805.8274070775
195,"N3",582001,585000,510111.85120014,29610.4978635133,12102.0919166622,7280.8227528234,19569.605980985
196,"N1",585001,588000,587271.951497056,45351.8214658595,12538.5672381139,4598.9655531506,9953.1784003316
197,"N3",588001,591000,444800.136773258,40729.0422718764,11081.555643953,6874.2576366148,18831.7628299533
198,"N3",591001,594000,190858.520636919,21046.8188050808,7372.1030991739,3516.6877921902,9068.6655522537
199,"N3",594001,597000,426259.711093028,41898.8936866767,13867.1517029475,7653.2404100989,18265.1412889903
200,"N3",597001,6e+05,425450.269135669,37629.1592690473,13384.9568531332,5826.6997644814,13703.7532476003
201,"N3",600001,603000,843858.259857105,46289.4298440987,12869.6592795247,6175.8892985901,15465.8218308001
202,"N3",603001,606000,438610.710838065,45236.2327645934,16121.3535771543,7515.5403285363,16933.5377440999
203,"N3",606001,609000,299100.587061354,25093.2227203752,9319.6444320168,5526.1529883737,17987.6955915956
204,"N3",609001,612000,397441.541344229,41548.2136511079,14556.9685683369,9326.7039145252,21840.1419355598
205,"N3",612001,615000,165630.145806713,22238.0425262317,8685.3442980141,4600.7746126261,12978.2099156255
206,"N3",615001,618000,174634.678478779,22812.5666843838,9082.7423385806,5120.1552951004,13273.5056876773
207,"N3",618001,621000,224842.433165267,24166.5951057197,10262.7942451722,5625.6540906999,15243.6594679169
208,"N3",621001,624000,211854.278412458,24652.7451389089,7138.8271862863,3283.7331023911,7111.7951790308
209,"N3",624001,627000,163506.50278963,20185.4435023648,8746.5816296251,4698.2892647543,11366.5907618394
210,"N3",627001,630000,256288.898291778,30746.0792225271,12637.5582478508,6661.6710938731,17396.167729293
211,"N3",630001,633000,608702.583643653,50017.527240667,15425.0458280197,7903.3462969609,22865.290972104
212,"N3",633001,636000,399818.334891671,44409.5360766328,11882.3673173866,6334.7597647427,19028.5737688428
213,"N3",636001,639000,215237.039543694,22856.9681452926,5810.4591922847,3316.9782153811,7896.6162626031
214,"N3",639001,642000,227044.857283231,30117.6301941423,8041.5326134113,4193.3285455936,11139.2881234216
215,"N1",642001,645000,436007.741291695,47516.1958931719,16584.8596333607,7829.9097331871,22254.7374515243
216,"N3",645001,648000,181832.070388324,31788.1483987197,9956.1636306537,5590.7056666286,17043.1826735484
217,"N3",648001,651000,191758.672689888,27923.2091241777,9783.6524735329,5275.9196710147,14148.3889158434
218,"N3",651001,654000,253962.341819844,36082.1658288638,12774.7609734241,6153.5933710931,15211.6857077738
219,"N3",654001,657000,381146.882346729,35735.7183208432,12628.0660335261,5734.4704499813,13665.7501108714
220,"N3",657001,660000,201321.193415548,25481.0452274161,9438.6758038166,4818.0681599841,13139.9694523014
221,"N3",660001,663000,170027.828422566,25144.3211449973,9903.2976180643,4633.404245715,11482.5221129525
222,"N3",663001,666000,299525.543964534,40176.8339661374,11473.0334096762,5710.7072653275,14629.1321871862
223,"N3",666001,669000,334843.271015264,30050.9979394531,11276.1457501036,5868.7119117372,16835.4072753661
224,"N3",669001,672000,104834.871203423,15503.7101422621,7043.6733044471,3611.1197451984,9744.3729296555
225,"N3",672001,675000,232925.479899035,30106.1659990289,9143.4771011163,5024.872595304,13052.5334812133
226,"N3",675001,678000,378411.483072648,42517.2247503285,12163.8260515575,5539.9762058369,12435.68775318
227,"N1",678001,681000,219575.875724193,33174.9500477307,9032.4941419709,4970.6892876897,13884.4089429637
228,"N3",681001,684000,482377.132642872,37335.7398901353,13707.4331615332,7906.6873112422,20305.2878784649
229,"N1",684001,687000,371115.297711992,41811.0542297609,15359.6104742545,9977.2219494533,27746.1664016561
230,"N3",687001,690000,306507.508625264,44968.2722142218,14807.9686628073,7166.1421278962,23522.183736204
231,"N3",690001,693000,470863.181788723,44860.3849336544,16533.966713735,7640.0186997752,21639.0122110212
232,"N3",693001,696000,357279.48204033,38339.1734954886,14680.9491516303,7177.3112261928,18429.3583078298
233,"N3",696001,699000,321074.410965062,27949.083636108,11258.1229358246,6132.4397910135,15509.7362117116
234,"N3",699001,702000,152637.748747502,23993.2972400958,8578.31599232,4167.6623832723,11409.8885680139
235,"N3",702001,705000,215533.952531045,31324.416102045,10363.0103206758,5772.9189660534,16147.6599908499
236,"N3",705001,708000,292953.874974441,30332.5796225271,8315.7051832071,4584.1331973846,10540.5014758804
237,"N1",708001,711000,267164.110551772,33300.0878776921,10342.1448465094,5056.8859570281,11491.8309866347
238,"N3",711001,714000,305771.722778922,31325.0826152053,9117.4611889932,4440.0890644837,12777.2912434199
239,"N3",714001,717000,247366.607949525,29030.8269030247,10822.9480016532,6188.5423522723,13221.1729972249
240,"N3",717001,720000,293803.107874136,34924.8876559664,8082.0931297902,4076.7023327936,10901.0349728038
241,"N3",720001,723000,517841.699619512,42992.5434725555,16124.5907592091,8927.0976665655,26287.2598159583
242,"N3",723001,726000,420606.737678196,39133.4192991774,12752.7309309662,7135.6392015556,21912.0086146346
243,"N1",726001,729000,433328.843137558,38998.6256082304,17627.2788133798,11169.1655924936,35855.2124742145
244,"N3",729001,732000,744036.459865604,34452.597237436,12704.4619105647,5655.6993830684,13112.9755874815
245,"N3",732001,735000,534411.557212385,28582.2102942635,9006.015674306,4965.7088177538,11951.7990379777
246,"N1",735001,738000,500363.580345907,49670.1582028136,21321.6639864079,14370.3006363407,35130.9700850284
247,"N3",738001,741000,686077.669259351,50821.7327023374,16095.2585413797,10873.692775893,25339.5767034932
248,"N3",741001,744000,577260.149211902,45334.6374610425,14274.5038216035,8293.945715456,22960.2768895933
249,"N3",744001,747000,641903.477942214,46119.1899862424,11554.9040689222,5160.8353599735,13625.6406348156
250,"N3",747001,750000,494649.103837105,34191.8206679217,14587.9560370446,8522.4637128709,31643.9258425416
251,"N1",750001,753000,392699.127394075,24980.4987114908,10275.2369849693,5939.4606110518,16736.6116031947
252,"N3",753001,756000,529438.479398539,31923.7820272722,11334.4487218924,5298.16232781,17279.4487638758
253,"N3",756001,759000,772806.118612811,40127.1049563965,17617.3752067855,8628.9478736006,29142.7382706345
254,"N3",759001,762000,470825.043200471,45695.183769142,9823.477424304,4531.1391190415,9900.5306606891
255,"N3",762001,765000,466699.050533442,44278.9694793526,13033.9030426274,9275.0629423289,22299.7208137132
256,"N3",765001,768000,280656.053020507,32219.2324622578,8785.3532469524,4620.733108639,10288.6047324237
257,"N3",768001,771000,544330.027748182,35689.0027660924,12466.4288127978,6935.872184394,20982.988562586
258,"N3",771001,774000,397643.110260159,47442.8850952725,18585.3835620476,9625.0857694024,27679.7804306468
259,"N3",774001,777000,768811.848616233,59435.2398919661,18122.5355773826,8374.7499475031,25145.6843214365
260,"N3",777001,780000,447745.756585628,74148.5865298198,21380.8434704833,10034.706644354,27329.5006692162
261,"N3",780001,783000,389768.488424705,48791.0838616031,13212.0838189561,8323.3855062398,25079.9946504739
262,"N3",783001,786000,321854.582709902,35545.2155028518,15904.6933987244,8155.4757014083,26775.1095525038
263,"N3",786001,789000,501491.013392922,46612.9209121904,13126.5096882595,6950.291389191,20047.5416568476
264,"N3",789001,792000,504064.85062538,40575.4139486491,17418.2202636365,8450.0691336734,25543.3665626058
265,"N3",792001,795000,606583.723683497,52794.6608463287,16485.2104768322,8702.0437792755,23357.9508013526
266,"N3",795001,798000,544231.54078924,43570.8978269539,14254.9951420178,8426.3619694521,22475.787242349
267,"N3",798001,801000,506093.015433614,48668.2158702149,16614.66601649,9262.0358444832,24853.1340377956
268,"N3",801001,804000,510817.415032048,49640.9296513637,16750.2623893163,7407.3365268918,17033.2779681508
269,"N3",804001,807000,482699.212662795,47871.5663673758,15165.0247295501,7590.7874706438,19224.167106606
270,"N3",807001,810000,395992.859675391,29383.2992670699,13340.1880887125,7658.5127446534,20945.1361856697
271,"N3",810001,813000,118037.158980217,16790.4773227248,6513.2652284153,3408.8978040637,9973.5554456078
272,"N1",813001,816000,332614.635277755,22662.1498896015,9114.2548086145,4190.5306630951,13808.7551358478
273,"N3",816001,819000,178038.406833176,17560.8225189344,7343.1915117933,3424.2991685883,10550.8514558921
274,"N3",819001,822000,250623.902617304,19202.8454499072,8294.4174385842,4425.8810238912,13914.983627999
275,"N3",822001,825000,176299.830121393,18631.6342918892,7242.5709941579,3648.2313116113,9012.747504376
276,"N3",825001,828000,415737.273902543,25401.1727599504,11062.8473226033,5243.9958505289,13826.0162326837
277,"N3",828001,831000,291814.401014429,25919.0581642657,8922.7747551494,5142.8788534415,14983.8475288423
278,"N3",831001,834000,111563.47760386,17390.4254296408,6152.4064022606,3089.4273041312,8541.7778347026
279,"N3",834001,837000,83559.7065724245,14747.5513008589,6282.9470206315,2829.9210277736,8446.5493748119
280,"N3",837001,840000,340872.591019063,21129.4176546459,7899.0938584489,3438.4232070451,9617.8345930929
281,"N3",840001,843000,321465.259392086,25492.8101521258,10185.5765080074,4945.4655334944,14943.5377709207
282,"N3",843001,846000,422738.270375923,19177.506266486,7841.5085501508,3578.4636344468,7809.5924772793
283,"N3",846001,849000,396226.682588174,23649.0656702596,9782.1734551175,4476.1831754436,11718.0937126066
284,"N3",849001,852000,393857.561720292,24106.3360343956,8416.0932259708,4957.9881591335,12166.6743023351
285,"N1",852001,855000,340428.914729697,31050.7653130714,8985.3345664171,4081.5054314144,8022.1489254966
286,"N3",855001,858000,340724.303138125,28062.6032492432,7449.3137910999,3471.1340274843,8229.2211464136
287,"N3",858001,861000,371817.460409598,24194.0756161897,8615.2340886749,3782.2975891981,10868.5949464692
288,"N3",861001,864000,292083.687010197,25800.4550566763,8915.0979914276,4979.9650400116,12652.9923078537
289,"N3",864001,867000,250495.884443156,31891.283257706,6642.3127764019,2805.8481468705,6452.6662588235
290,"N3",867001,870000,326269.993901119,24298.5510205588,7622.577703821,4011.246431098,9210.5561780505
291,"N1",870001,873000,271119.567505241,32576.2251338033,8981.5029666607,4468.0850039319,9820.6359249552
292,"N3",873001,876000,413938.017454124,35463.8214184909,13055.663511663,6191.4814402011,17255.3797083552
293,"N1",876001,879000,462624.293090175,36010.2760306836,11584.0269447157,7633.6660150174,20063.3509665152
294,"N3",879001,882000,306358.671172576,33048.5816555268,11104.0076630122,5603.0558592023,12096.1751980759
295,"N1",882001,885000,156016.698922947,18802.2258588305,7773.4984964118,3687.1760982792,9864.0987108432
296,"N3",885001,888000,131899.857148349,17744.7485425478,6437.2586588755,3248.3894749867,8619.7823550147
297,"N1",888001,891000,428725.283030624,37016.955512503,11808.4927895525,5166.9521750391,12568.8960029022
298,"N3",891001,894000,323687.728081338,25965.3000874394,9483.3249633811,4409.920994793,11228.3861603989
299,"N3",894001,897000,213279.171346454,25213.1001158581,8343.5365031371,4403.1375896519,9523.1262977307
300,"N1",897001,9e+05,405845.429078716,45645.1573014907,21031.2606514989,11709.6855762756,32347.7176045936
301,"N3",900001,903000,433362.791113763,54553.9817112891,23313.6736383586,12254.0849666144,40127.2612958911
302,"N3",903001,906000,341258.801527159,39911.8456257888,20992.8251883858,11080.2622598673,32246.1957340391
303,"N3",906001,909000,733488.728580699,51439.6610617772,22966.4822422448,13282.9419572324,43279.6705268885
304,"N1",909001,912000,404676.224329267,33908.3548471036,11784.6394633575,5927.3010164205,13560.1429419678
305,"N3",912001,915000,528556.0139997,48121.0254457717,13284.0972912832,6509.3013708091,15058.7971042827
306,"N3",915001,918000,437502.4422837,38850.3233731896,13841.9366215635,7722.4483657944,16034.6412883101
307,"N3",918001,921000,350817.171237965,34723.5177816328,13052.0136123363,7147.8136033794,21093.6968568305
308,"N3",921001,924000,352336.47185475,38909.2509500565,16783.2660570343,8302.6189262248,24276.4767953566
309,"N3",924001,927000,367671.808369554,39748.2970748787,14374.526333246,6683.4398475146,15098.100927981
310,"N3",927001,930000,322885.102565036,34515.3915265899,12657.4061914154,6333.4280155118,17884.7322926939
311,"N3",930001,933000,273714.043179501,24639.2266609087,10779.5248771245,5176.2534934783,12798.3711739379
312,"N3",933001,936000,223033.059915741,32875.2778515483,10948.4808903625,5599.1005332098,14946.8041447015
313,"N3",936001,939000,306294.460839517,30118.4482065099,10776.563917758,5260.0709041971,13280.2618783126
314,"N3",939001,942000,386833.388849103,40734.183198906,13795.9688887395,7275.070925326,17482.0079012066
315,"N1",942001,945000,255161.08520317,26961.8784245712,10706.4241220792,6926.9647382157,19178.5127621991
316,"N3",945001,948000,275337.6311021,32512.3024329238,12557.0907241,6337.4697598757,19735.6437390039
317,"N3",948001,951000,244907.050183737,26110.2416396783,9027.6435481945,5170.4054814013,14329.0475312626
318,"N3",951001,954000,368132.3907675,28557.1102710906,7921.8254637012,4830.5435720146,13521.0749790212
319,"N3",954001,957000,336613.223614732,24394.6877850626,11638.3314271096,5605.0541264794,15913.1096836009
320,"N3",957001,960000,171832.765123469,24319.7968042622,10236.1679682996,5181.8276498745,16175.8347856199
321,"N1",960001,963000,149619.86983507,20609.7121241126,8550.3202654477,5342.1428269663,15322.4788422603
322,"N1",963001,966000,84072.888290688,23904.0985622824,9088.3991333582,5379.3638732225,18066.0122867447
323,"N1",966001,969000,105345.95276875,24298.0956757381,6665.9168396283,4336.8024067443,15754.8945386038
324,"N3",969001,972000,207944.629909671,26940.5955192171,9882.7728293851,5624.3982872756,18859.9517934696
325,"N3",972001,975000,217950.668761552,23684.7846065503,10913.8182282578,5756.6700338482,19886.5943111953
326,"N3",975001,978000,106511.784808867,20714.1285969878,8245.9641056372,4246.1827799137,12957.2177191438
327,"N3",978001,981000,195913.962242084,25419.3321163606,10463.7806190144,6071.1940070951,16681.9096275921
328,"N3",981001,984000,357036.796462744,26537.286227453,10366.3363325462,5901.5204695087,13735.0361996746
329,"N3",984001,987000,261585.073357894,37886.3766473032,19112.1776983479,10764.8110187899,33987.9010865243
330,"N3",987001,990000,379597.638828894,40564.614431675,13621.8702013489,6556.9975666716,17704.1224484266
331,"N3",990001,993000,343974.605172046,32338.2303570638,11114.4102682208,5565.3342262755,14911.1200936359
332,"N3",993001,996000,165596.549754592,18660.4875308773,8168.8837249794,4033.1771339856,10582.0384928613
333,"N3",996001,999000,346764.538051207,27100.6366603343,13504.4939510463,8246.4097279898,22182.5439538791
334,"N3",999001,1002000,390178.040164025,42007.0018565748,12970.3348192122,5869.0916019137,12764.3525553988
335,"N3",1002001,1005000,358827.491388065,33456.2129268418,11519.8729575396,5431.597498712,15051.6175658835
336,"N3",1005001,1008000,347255.105077741,39196.5572367107,10583.6138975131,5649.797383002,15067.6470164579
337,"N3",1008001,1011000,378500.529858046,34591.1060865965,13906.4175420013,5634.2331226092,17493.7297256558
338,"N3",1011001,1014000,409314.076431667,36261.7510222183,14356.513996005,7370.9724712532,24078.6290554158
339,"N3",1014001,1017000,489699.344982858,42103.7142858801,14458.8764423947,7407.2450185238,22250.5399243124
340,"N3",1017001,1020000,370032.390607771,39985.345978454,13776.9305437068,7683.7976311046,18682.5816420969
341,"N3",1020001,1023000,535437.63954279,42998.6813667063,20340.2877911283,10786.7713574829,32327.2665355798
342,"N1",1023001,1026000,360005.389310463,49199.1552032546,17011.6489599891,8148.7067462049,18567.8679671408
343,"N3",1026001,1029000,364876.798628749,54197.8405493703,13117.1107113693,6664.6375611259,15701.9271852749
344,"N3",1029001,1032000,548069.632298214,41555.6791842402,15676.1914859948,6608.1127064738,16046.6133476418
345,"N3",1032001,1035000,246010.458594233,23349.5559544344,12608.0023273615,5811.6128025309,16605.5344997705
346,"N3",1035001,1038000,249769.005811829,23278.1536694895,10212.9002538114,5808.8739233615,16236.7717607073
347,"N3",1038001,1041000,336196.740974625,21438.021364879,10957.5253951335,6561.2191581157,19129.2302269081
348,"N3",1041001,1044000,336462.526599353,35146.395024463,11724.8811153038,6519.7247141776,20189.8228562722
349,"N3",1044001,1047000,296791.959628911,26074.7760601764,10608.245460094,5715.3016905863,15219.1398698888
350,"N3",1047001,1050000,165710.372602828,24219.4677230718,8432.2270437527,4510.7345591828,14304.7097056436
351,"N1",1050001,1053000,299279.021914438,35295.7498894642,12373.3659454654,7394.8695804808,20622.6474905234
352,"N3",1053001,1056000,249348.662664891,22729.3504648149,10588.5324298855,5931.2717985421,15263.8372059155
353,"N3",1056001,1059000,306296.66343802,39682.9690723369,14476.2232958736,7594.5583308876,22894.5437839866
354,"N1",1059001,1062000,119858.793999348,19346.6367647992,10097.5785314002,6466.4524006566,18110.4707615974
355,"N3",1062001,1065000,280821.944140473,38349.831617621,12108.4529223083,6056.8257872206,19775.2396381153
356,"N1",1065001,1068000,292279.504260844,31589.6942765352,13063.5169796395,6756.2226539839,17221.5391228579
357,"N3",1068001,1071000,348340.805785198,36089.1466255489,12581.8187815103,6450.8954712173,13902.479561346
358,"N1",1071001,1074000,211363.783359412,27227.6108843013,11979.6392432188,6964.4837887273,21707.5444654706
359,"N3",1074001,1077000,294468.463002688,30959.7279573286,11269.4833812969,5807.7153203863,15660.447424911
360,"N3",1077001,1080000,400952.694934854,39228.4686396401,11894.1218683857,6149.9419822868,18736.3710224868
361,"N3",1080001,1083000,501247.273808627,47603.3015202397,14999.2889030829,7396.6640220426,17447.2228902491
362,"N3",1083001,1086000,229538.569609116,28925.0328691513,8567.3221389507,4944.6071880725,13407.3167560329
363,"N3",1086001,1089000,357705.447136514,35953.5740316161,11266.1959501068,5592.9538755122,16875.3224063347
364,"N3",1089001,1092000,323200.691376211,32276.9553897043,8733.0111196277,5229.107691487,11692.8809642469
365,"N3",1092001,1095000,320355.335279887,32001.5736877254,11006.618683751,5803.8458719078,17845.654826563
366,"N1",1095001,1098000,281620.467317514,31094.6908790354,12122.7393906205,6481.6065117254,17071.747515952
367,"N3",1098001,1101000,283392.636515935,28529.2890649167,10873.1205878683,5632.912570138,19522.8721798416
368,"N3",1101001,1104000,304273.062111014,30437.877503478,10509.6592201033,5638.6011781948,14873.7338119575
369,"N1",1104001,1107000,190017.324531595,21659.5282275088,9586.451175769,5973.2445112779,18601.412024902
370,"N3",1107001,1110000,154617.033971064,20447.3985021493,7801.4591627605,4349.2694714098,9652.2180224536
371,"N1",1110001,1113000,256652.166154663,25965.5565949276,7243.4686174368,4328.1309235641,9405.2701849934
372,"N3",1113001,1116000,386727.703287552,32671.0365097419,10458.8586114804,5425.3064696912,12121.276830335
373,"N3",1116001,1119000,171775.101388235,25290.5073994786,9377.9565163025,5385.4753419399,16029.4346167545
374,"N3",1119001,1122000,238899.415443639,24912.3673684045,8432.1623199957,4618.45232243,13190.5120404857
375,"N3",1122001,1125000,257489.908895751,25418.9006324706,8181.3044274312,5067.3988668742,13845.7030827947
376,"N3",1125001,1128000,304063.886996196,27749.107836459,10222.7484766126,5611.8015380136,21945.3030755222
377,"N3",1128001,1131000,322799.719903748,28418.6919526271,8947.2685774023,4525.5321936245,14305.4352556716
378,"N3",1131001,1134000,263936.122323046,40502.2393525755,11925.5437009867,5886.934100435,15546.9877293479
379,"N3",1134001,1137000,277951.198689821,40469.1107518918,14475.0441191231,7392.4544292602,20406.5728389498
380,"N3",1137001,1140000,332430.606205218,31139.6272667831,12094.6368845016,6968.4611725236,19693.1456671719
381,"N3",1140001,1143000,375390.497907534,22181.5414289159,8402.0970325837,5746.5055285214,18872.434685974
382,"N3",1143001,1146000,246742.137523745,24197.6351443367,10584.5494642612,5391.3054661552,14515.841372485
383,"N3",1146001,1149000,480856.413323369,41852.3981369399,14500.8515139342,8205.0699014241,25935.2099576603
384,"N3",1149001,1152000,496680.729720741,39933.2536210281,16731.9977557834,6976.6963458382,28087.6957548815
385,"N3",1152001,1155000,374484.674615737,26636.5842542787,13625.8187754468,6486.797801605,20359.6802782318
386,"N3",1155001,1158000,377287.047802611,22032.6827415561,10966.0545673612,4546.8171355175,14404.2124528049
387,"N3",1158001,1161000,481869.447782766,43559.5897588241,10050.5396970131,4715.3787143033,12542.0679101343
388,"N3",1161001,1164000,625100.69822553,46207.5143394887,13389.277723638,6453.8469787741,15854.9934961792
389,"N3",1164001,1167000,544001.23358365,36549.8728833006,11521.4350077973,6803.1300767327,15913.4159623406
390,"N1",1167001,1170000,211062.406093702,25760.6712368996,10610.2010535263,7049.1874548854,22390.4975560469
391,"N3",1170001,1173000,262879.885721307,34037.4162619346,12016.8587686649,5637.481167364,17888.6580739157
392,"N1",1173001,1176000,219507.53250269,32772.0701009732,10146.0798983991,6596.717518252,15025.8421689832
393,"N3",1176001,1179000,402180.607973944,39006.5281074702,11703.2253773089,7106.0936708,15929.7454158259
394,"N3",1179001,1182000,291228.81520607,26987.3648258547,10054.5871401321,4999.6560694802,13415.4971828139
395,"N3",1182001,1185000,259784.812123536,24468.7897475302,10415.7057037164,4782.5384876524,13687.1860577054
396,"N3",1185001,1188000,311474.288064245,26329.5425563353,9500.9318541883,5217.095780045,12273.7237870942
397,"N1",1188001,1191000,238898.372259705,22336.2670829728,7489.2817608759,3798.3865627829,12167.2135898196
398,"N3",1191001,1194000,74038.8009874255,16694.4702441183,4174.3360364385,2370.5491493329,5731.8107104603
399,"N3",1194001,1197000,76799.3185266692,12982.2625148845,6329.528153524,3296.3874850949,7051.9750123837
400,"N1",1197001,1200000,414376.669713203,27676.1936829908,11285.7829211797,5777.7617351635,15264.6342071586
401,"N3",1200001,1203000,309096.087133091,38303.0739336989,13556.065703903,7246.0488458978,23674.1713836464
402,"N3",1203001,1206000,169292.356529057,26106.9498366928,9836.5834216328,4599.0144570228,10313.9832357123
403,"N3",1206001,1209000,148682.384881566,24481.2954359529,9173.2472278844,3790.5107732425,9727.2901059035
404,"N3",1209001,1212000,177920.034672528,18379.0613738258,9882.2394145042,4654.7554279935,10802.3221268363
405,"N3",1212001,1215000,117974.831417773,25094.155743304,7215.9227650733,3828.8238951128,11477.7433405791
406,"N3",1215001,1218000,260808.742965504,34167.7570814568,9129.3119301095,3544.9602474917,9460.0554429666
407,"N3",1218001,1221000,130369.435431968,20976.660012235,7589.1163941341,3255.9923140768,8567.3796650136
408,"N3",1221001,1224000,289070.28953834,25634.7380742031,8532.7161384028,3703.4570376148,12311.2217335231
409,"N3",1224001,1227000,263698.264643018,30998.1124393197,9307.5641874735,4320.6228585913,12203.7474621653
410,"N1",1227001,1230000,168619.077920689,26150.8408583232,9124.6824378981,4348.3996645409,9935.5365060982
411,"N3",1230001,1233000,119040.147279793,24024.6238625738,7291.0872358587,3676.2206741028,10305.9131306263
412,"N3",1233001,1236000,186809.650099489,35070.4412862232,9338.1806996135,3391.0760257036,9077.0445330464
413,"N3",1236001,1239000,66942.1584193684,23420.5026505377,7348.4138533679,3940.3869226691,9703.3994246158
414,"N3",1239001,1242000,305162.887608066,29965.0547302286,9777.5722837005,4629.0209884529,13769.3394602988
415,"N3",1242001,1245000,306235.764593603,29864.8579725761,8345.8002663127,4464.6713934246,11059.7457381469
416,"N3",1245001,1248000,332051.410057451,29425.4725598677,13920.5264422728,6469.1636619092,21498.7412777465
417,"N3",1248001,1251000,149277.5680136,26404.3665354304,8773.1938468577,3420.030888953,10410.0265367414
418,"N3",1251001,1254000,162546.60598723,38008.7309072497,8450.7934281807,4038.0230407541,12849.2839883366
419,"N3",1254001,1257000,190920.277000851,31878.0407277431,7935.3314529201,4331.8019461855,10228.2202180817
420,"N3",1257001,1260000,134349.513920713,23193.4601881297,9242.5216243003,3337.6805204614,10224.8127759342
421,"N3",1260001,1263000,81176.423362124,19865.3611781044,7872.2888480307,3140.420472886,8929.532152313
422,"N3",1263001,1266000,199718.465414015,20797.9199605984,8382.2925987016,4102.5659043112,13531.376614225
423,"N3",1266001,1269000,279322.290345262,61235.2482795041,10063.6797423406,4633.808809146,14770.4591555687
424,"N3",1269001,1272000,297342.68399205,47823.6128250689,11101.9013405024,3976.0620743787,13355.1627572098
425,"N3",1272001,1275000,345961.994826591,32758.1330460128,10001.6426007137,5809.1233756907,17701.0790436892
426,"N3",1275001,1278000,131757.842059195,21366.5160208997,5420.3325095218,2205.7831038427,5335.3630716638
427,"N3",1278001,1281000,272793.951715228,33659.08327706,7933.3748009619,3689.6084987561,10097.4048102897
428,"N3",1281001,1284000,200136.435694385,26417.9353945232,8897.1036849732,3633.1262573621,10241.9482058223
429,"N3",1284001,1287000,161776.854716304,19729.3740577873,7385.580357771,3651.3907548817,10291.9282210268
430,"N3",1287001,1290000,149955.884429664,27548.927588502,8019.687051392,3831.2237539386,10597.7080412567
431,"N3",1290001,1293000,336793.56100739,37462.782170178,9698.1839532107,4923.7747466377,12936.4839093786
432,"N3",1293001,1296000,161412.28987413,17262.0131648824,7498.3330783231,3526.4144306643,7248.2451694671
433,"N3",1296001,1299000,282613.281495774,30146.1936941836,10497.4613780369,2697.7863377456,4984.4723256388
434,"N3",1299001,1302000,253611.37920907,38505.8564748533,8900.0332952645,3487.3015240657,7475.1732127797
435,"N3",1302001,1305000,257045.36639888,35901.9245982442,6911.3607141676,3231.381885982,7839.3297038405
436,"N3",1305001,1308000,135300.234852717,26219.6969461252,6701.3696740781,2952.175398178,8268.3438229975
437,"N3",1308001,1311000,88301.1873639527,20321.6836853416,7448.2429790192,4016.6578480685,11310.8438341085
438,"N3",1311001,1314000,122240.522589841,24139.265312668,7742.2061013394,3123.4972424183,7686.7437377733
439,"N3",1314001,1317000,391085.315743491,54109.7030997503,13099.1489933595,6080.1244689038,15159.8237383922
440,"N3",1317001,1320000,310848.750480486,42287.8520897346,8688.0875066599,3705.5596766341,8555.0634151708
441,"N3",1320001,1323000,435904.099221635,38490.2683551399,9805.4797630637,4058.0984500521,7339.7935999429
442,"N3",1323001,1326000,176037.92029254,20374.6414552855,6625.9898160374,3577.4726305301,9050.1733344995
443,"N3",1326001,1329000,312522.547459331,31984.2496934497,13259.1546972898,7245.9945608076,19922.9606351395
444,"N3",1329001,1332000,243223.483269627,37982.0267135893,13316.4684239803,6209.0797549225,15170.1031757197
445,"N3",1332001,1335000,289688.943972834,31627.9340216117,15689.8861381306,8589.8131967255,24467.1681095321
446,"N1",1335001,1338000,209915.683437622,31152.4881730673,14281.3262967905,8908.6382622729,30924.0447016047
447,"N1",1338001,1341000,109978.319944687,26763.2741423668,10651.7870273783,8086.8399878794,21333.1324174715
448,"N3",1341001,1344000,220807.278779471,28178.6137445625,10784.3059837851,6771.1959219585,20131.7576073834
449,"N1",1344001,1347000,151123.936815203,29451.5405081696,14258.6545854777,6190.9537886912,20766.4059635296
450,"N1",1347001,1350000,268906.288932789,34452.5590190038,15098.1851322579,6443.110212304,23784.1042168591
451,"N1",1350001,1353000,288226.828056151,46796.9481284162,14468.3726312971,6657.3787717955,18561.895995288
452,"N3",1353001,1356000,224347.44978833,34681.984181073,9700.9541611488,4750.3633645152,13820.7470294906
453,"N3",1356001,1359000,259376.829005481,34329.4122247843,10856.1518695864,4862.1184898735,12291.1908265096
454,"N3",1359001,1362000,317375.787439708,30935.6084473288,10043.9658292422,5321.2458341807,15318.8711380985
455,"N3",1362001,1365000,274965.612537819,51240.5994065837,12296.1102593262,5255.1446964238,13980.1386699566
456,"N3",1365001,1368000,408893.45467005,44918.8100960981,10604.9151841453,4579.6739664427,13361.3566091936
457,"N3",1368001,1371000,342507.452525572,52560.2888728456,12125.3700522701,4955.9615852849,13318.4698076777
458,"N3",1371001,1374000,272333.88332348,21843.6160439179,8611.441205456,4666.8778380558,13122.5391651378
459,"N3",1374001,1377000,336768.705482897,29037.3763869028,9484.4244578461,5100.6113859438,13553.5373297561
460,"N3",1377001,1380000,129358.638926995,28752.3419377408,8407.3808815243,3960.0990975531,10794.7424550458
461,"N3",1380001,1383000,113088.726046709,27684.8336918297,7974.5230320993,3483.5402810702,9892.2957353259
462,"N3",1383001,1386000,235968.857641773,42775.7598023567,11443.5079109345,5824.436990939,17843.0112953368
463,"N3",1386001,1389000,349764.729265063,40957.7655027594,10684.387189306,5449.4718955972,16502.1771223693
464,"N3",1389001,1392000,119166.026135827,14693.2434315219,6192.4576498989,3817.4926553836,10107.0253453801
465,"N3",1392001,1395000,272687.539549111,32241.3039893985,8015.1791962313,3903.4947841116,9700.5008490843
466,"N3",1395001,1398000,233677.168571811,26595.912693703,10594.7973120919,5888.566305894,16221.9603848916
467,"N1",1398001,1401000,188752.161642946,27355.0586561462,11224.6175077964,4822.8468938378,13912.3561363728
468,"N3",1401001,1404000,227510.702554355,49926.1085788342,16669.4094833055,8208.9979989679,26099.8926512732
469,"N3",1404001,1407000,339141.335533956,39148.7188034559,11615.8693107454,5579.6166298215,19491.4549604835
470,"N3",1407001,1410000,275392.575236733,49549.2627241902,15516.1033291328,5730.5011599435,21578.9661344958
471,"N3",1410001,1413000,346745.545196896,48196.1535192078,14598.5394390598,6192.6317293085,20372.1365294104
472,"N3",1413001,1416000,410007.53794555,60936.1164445737,18252.3639197086,6324.966370455,17400.013585433
473,"N3",1416001,1419000,459434.813700414,67054.9527409002,17365.4891661126,6897.1237786008,22447.340210653
474,"N3",1419001,1422000,381590.248332961,61786.9628187311,13652.3537950396,5966.3949323503,18924.6450137966
475,"N3",1422001,1425000,321018.440383483,49509.5594235839,10324.6816600965,5671.09597394,18265.570303459
476,"N3",1425001,1428000,563184.727439423,81775.3644736376,14338.5815525805,6685.2448145015,20222.3953142162
477,"N3",1428001,1431000,278684.415680314,56004.2657406571,12776.6007423322,4682.4855078606,17638.8096473846
478,"N3",1431001,1434000,435179.912940697,35556.5273584199,10188.7734655289,6308.1757096275,17836.5264939022
479,"N3",1434001,1437000,567145.875436204,48897.110901506,14677.0394514351,6502.4709545738,17841.0186570188
480,"N3",1437001,1440000,448174.535758068,32436.1104694021,9657.9833942612,4447.3066561359,9552.4530782516
481,"N3",1440001,1443000,381407.456253772,46365.5556887144,10450.1130342595,4891.1710506495,14520.2795021559
482,"N3",1443001,1446000,347954.360437265,38354.8758874272,13018.2198910177,4647.7895717026,14009.4534771827
483,"N1",1446001,1449000,197266.977745285,37192.4262267574,12992.5014974781,4152.5638198623,14386.7079784866
484,"N3",1449001,1452000,572028.574339449,72146.5778622316,12613.0962844597,5416.0761035357,15595.083586513
485,"N3",1452001,1455000,359122.648633364,47586.2787705843,10212.8454065333,5397.5888738437,14483.260497194
486,"N1",1455001,1458000,256249.0077263,26517.0342755301,6363.8229235509,3674.0870975913,8775.8440377987
487,"N3",1458001,1461000,302079.738996305,37900.930868545,9787.3124278506,4130.3717666128,11071.6626625636
488,"N3",1461001,1464000,303500.949934981,51390.3756754716,14948.7186708983,4606.0925868102,14551.9672295343
489,"N3",1464001,1467000,241803.254244942,51405.7093113946,10396.1648668617,4892.065717467,15813.1184887094
490,"N3",1467001,1470000,259458.34544067,28497.8932582845,10172.5315877645,5015.539502354,14447.5757923827
491,"N3",1470001,1473000,441879.504548568,40785.3580328647,12585.6211218501,6209.8312236827,19002.1099229888
492,"N3",1473001,1476000,433006.094346929,36543.3097640548,12731.4362079855,6321.4976066396,16707.0383824597
493,"N3",1476001,1479000,235772.816679577,48069.0797583566,12534.9148990435,5921.965971028,18992.9597720831
494,"N3",1479001,1482000,181259.099648289,37414.1791842459,14975.9534518674,5303.6422695907,18309.5183854267
495,"N3",1482001,1485000,142664.930950542,33072.491155475,13301.6133726198,4283.6354355377,16388.6434136348
496,"N3",1485001,1488000,318742.875967635,57190.8613005541,19475.6384721711,6844.0632876382,21254.8502311682
497,"N3",1488001,1491000,474742.72355892,43617.0010528415,13842.8663907916,6325.7203969406,17754.8269809873
498,"N3",1491001,1494000,367314.193748404,42858.2968914208,15799.0134793917,7440.0731795741,21995.5406459815
499,"N3",1494001,1497000,368529.623553967,41671.2807799779,16919.4563593619,9405.2443812645,19470.3768485936
500,"N3",1497001,1500000,333138.031281886,41311.2113473802,14125.910697731,6319.2614403096,21249.9400193852
501,"N3",1500001,1503000,227127.378145453,26615.5278551046,8710.5711851414,5209.4015238096,14782.535683337
502,"N3",1503001,1506000,427075.301343292,30650.4821740425,12298.2091649313,6027.0294955226,22605.9485109189
503,"N1",1506001,1509000,170573.921510764,19201.3031623622,9394.7247459099,5044.4342642435,15382.646359163
504,"N3",1509001,1512000,238324.402664963,23355.3439140836,9236.196295446,4535.3575619858,10765.4985450413
505,"N3",1512001,1515000,309278.830774279,41781.5802489696,11295.8976884059,6352.5263405339,14620.5268712449
506,"N3",1515001,1518000,435247.156575751,44871.6068379484,11372.8019105584,6065.0861918755,12734.9734638232
507,"N3",1518001,1521000,332232.881117012,31226.8507563164,11319.0120187302,5977.184880957,14403.0221710333
508,"N3",1521001,1524000,328536.902730145,35496.0665464054,10775.4593129299,4670.7817899766,11362.5538969932
509,"N3",1524001,1527000,292337.118231688,30711.3615298865,11213.8246312118,6744.4270091238,17086.9297293733
510,"N3",1527001,1530000,279468.100833182,33900.0677643288,13097.6057550273,6338.2812602938,15888.5205855126
511,"N3",1530001,1533000,369737.14237981,35381.8102879584,12022.7774133697,5355.2386269517,11732.1007851158
512,"N3",1533001,1536000,288252.808402507,27676.5899535135,12164.0076752578,5607.247405093,14593.6578473524
513,"N3",1536001,1539000,235772.722399018,23867.8897338974,10104.6107997616,4590.3470325291,13423.0034125009
514,"N1",1539001,1542000,293866.683461955,39622.619445443,16537.6759136564,6475.0898458733,14810.1712699871
515,"N3",1542001,1545000,262168.466244633,21596.4226149069,13608.6363097136,6584.2565099697,18711.6912198246
516,"N3",1545001,1548000,320563.684631763,54148.2617458715,20139.6122985163,10807.0892422641,26551.5998732236
517,"N1",1548001,1551000,511088.251009437,31719.3324959576,14171.371541105,5901.515272718,20701.6653825214
518,"N3",1551001,1554000,544155.28922882,61070.0098026276,14731.5728764356,7727.1686929602,21232.0895416424
519,"N3",1554001,1557000,550665.689494889,67138.9511594478,16707.873659409,7779.78757712,18532.3782909078
520,"N3",1557001,1560000,719551.857808811,66470.4215352666,12752.2025754961,6788.35088668,14066.9796003756
521,"N3",1560001,1563000,757496.455032266,59215.6947848556,13110.7750860153,6762.221400146,15199.5452067585
522,"N3",1563001,1566000,387501.074988068,29611.6158742086,9451.3374940495,4673.0077519676,11380.1816430124
523,"N3",1566001,1569000,403803.778508591,51474.5719791182,13934.8415741913,5710.6949768259,14289.7971555713
524,"N1",1569001,1572000,522093.950632202,50042.2616091165,14484.5786843601,6317.4244470052,14239.7747188391
525,"N3",1572001,1575000,497990.100623171,77544.2238178561,10719.4914776789,5867.3451394248,11733.7737991913
526,"N3",1575001,1578000,423847.009774755,58561.4785172913,11537.9801234874,5136.9810017602,12819.2526116032
527,"N3",1578001,1581000,167793.372829472,23746.0839467285,8118.7977647674,3950.849646484,9678.4554147398
528,"N3",1581001,1584000,182634.087245433,35219.657896951,12376.0816713876,4011.0553282457,8357.9125141749
529,"N3",1584001,1587000,249742.456348293,35984.0116443217,11213.4521296013,4887.5888565024,11607.6052989004
530,"N1",1587001,1590000,114786.627255578,19016.0992311696,9420.5916640103,4268.9111841905,11559.6073132128
531,"N3",1590001,1593000,514122.932969323,40221.83900137,18664.246304744,9846.9406651781,33183.956376257
532,"N3",1593001,1596000,282892.998365504,26168.2901483564,15154.4958508232,8626.1902672708,27582.6132161294
533,"N3",1596001,1599000,295262.372482459,28109.2614423173,10297.8132137842,4697.2876227948,11143.8198319344
534,"N3",1599001,1602000,196413.593267508,22034.8989671179,9080.8509245963,4814.6835042935,12877.0861865903
535,"N3",1602001,1605000,281070.997784074,28833.8706504695,11619.4759538867,3548.3620628317,11048.2273583244
536,"N3",1605001,1608000,226994.281254209,33439.5510739664,8640.6741868261,3480.1659618949,9829.875832187
537,"N3",1608001,1611000,466871.938590111,35744.776463787,12233.4512019869,4677.7811837168,10801.9152910272
538,"N3",1611001,1614000,517456.476672163,54914.4084634231,15974.8790899055,6862.2756638924,23473.3976125659
539,"N3",1614001,1617000,326563.324287738,39349.2719614544,13199.1184429301,6630.1934181208,16171.3281516566
540,"N3",1617001,1620000,379605.172939392,39593.9514417861,12829.6040115809,7274.7740706415,18978.6801412533
541,"N3",1620001,1623000,316178.73673831,43469.3300255691,10483.6148275226,5430.8986660659,11524.6557852677
542,"N3",1623001,1626000,387939.162920699,37433.7492540259,7699.868014566,3841.1333745039,8251.0672305722
543,"N3",1626001,1629000,298009.577962682,38144.0177632075,8334.4540150405,4759.6776988231,10597.1422155096
544,"N3",1629001,1632000,240865.817513049,48355.5636547742,9599.8145907909,4653.6013195368,8908.0733675676
545,"N3",1632001,1635000,221385.257392643,43395.6024026327,10010.6218489687,4487.4242193019,9837.3959705341
546,"N3",1635001,1638000,371399.547856389,54241.9212143963,11900.8353771402,3768.1450527283,7548.4827204944
547,"N3",1638001,1641000,322784.959293655,52350.2592073985,11472.6389663864,5070.5870152783,10726.0701011669
548,"N3",1641001,1644000,178868.494102692,23516.9955522766,7475.1442030868,3844.762701075,9481.8576074478
549,"N3",1644001,1647000,332924.36939009,48419.3003924019,9289.1018090433,4106.6214352773,11377.125280926
550,"N3",1647001,1650000,332861.313499556,67252.8433753498,10399.2711889943,4305.43793605,9911.282852372
551,"N3",1650001,1653000,247355.521683287,47772.8500461994,9558.5060739796,3742.9163835066,9096.8426167203
552,"N3",1653001,1656000,338796.096913672,53470.6095521952,9398.5891357555,3682.3330825167,9345.5348396326
553,"N3",1656001,1659000,294981.270561541,50808.3665160915,11268.963748462,5222.066259983,11890.0533101894
554,"N3",1659001,1662000,444321.175054426,77966.6989322597,9643.4630756915,3654.4430464476,9826.5768268724
555,"N3",1662001,1665000,430066.45451309,57303.4041315078,10784.2016959564,4971.8851963837,11352.4655250261
556,"N3",1665001,1668000,399888.178271555,44177.4893649821,8280.7712418542,3426.3751369277,9051.330066448
557,"N3",1668001,1671000,185815.598600073,26728.1098594442,8004.8196604649,3999.3507965466,11727.7105917733
558,"N3",1671001,1674000,249401.583960678,32209.507174183,7774.9842550812,3984.7378458966,9305.7807947419
559,"N3",1674001,1677000,226260.042046198,37446.8537612953,8718.3559651307,4295.5607333505,10007.7323954157
560,"N3",1677001,1680000,302250.447514894,34730.7238662467,7682.1845060255,3408.1458401649,7056.4834452568
561,"N3",1680001,1683000,157910.489359665,37183.9806797296,10327.403661753,2042.2950955757,3413.1804777632
562,"N3",1683001,1686000,361219.604888734,50645.2161877675,7235.2500889748,2439.2557628054,3798.7699676537
563,"N3",1686001,1689000,216418.697830942,34363.4723583538,8605.2528650268,2958.6714059308,6187.5252155731
564,"N3",1689001,1692000,312222.467010787,39535.043790653,7411.8225970601,2979.097210725,5403.3008683577
565,"N3",1692001,1695000,255191.655639482,38151.1328056306,8020.1322211613,2448.0240039742,4549.2967106831
566,"N3",1695001,1698000,466172.641752778,51045.096093303,8483.1685583869,3316.7282401328,6832.2276445123
567,"N3",1698001,1701000,376468.052674984,49130.3041051569,8475.4313038312,3418.3843986768,10437.2908788107
568,"N3",1701001,1704000,382409.858612077,57222.2245820151,8493.0766020418,3600.1234043167,7307.1421388272
569,"N3",1704001,1707000,303528.736926322,45647.2806262896,10060.2730123092,3936.1795690485,10242.1266350495
570,"N3",1707001,1710000,353784.159595758,43333.4267231813,8398.2645664492,4052.5397798441,10070.0541305344
571,"N3",1710001,1713000,310954.278889494,33017.3179976084,8015.3501161704,3266.2910965131,7009.9133783358
572,"N3",1713001,1716000,332149.988416753,43976.592108341,5842.1071880863,2813.4076954333,7918.3858192371
573,"N3",1716001,1719000,366783.654628874,47772.7847948608,7943.9802084594,4068.959814232,7237.3654250853
574,"N3",1719001,1722000,331340.44351771,49708.2541862321,10643.8045366894,3962.9251701421,10063.2014787622
575,"N3",1722001,1725000,337510.254498215,47468.096838183,8587.1610383029,3430.2650488155,7234.8396038204
576,"N3",1725001,1728000,255039.940482224,34123.8332440892,11818.1019588097,3348.6493133424,7156.5923362392
577,"N3",1728001,1731000,438167.438347751,45848.1486344874,9946.0587280753,3521.0615714046,6915.3444937627
578,"N3",1731001,1734000,281650.817039635,35061.2037026669,6984.6856116048,2709.2075992335,6852.2163633218
579,"N3",1734001,1737000,209321.553148297,33978.3957115876,7046.7093101936,2698.5658443064,5748.3371788799
580,"N3",1737001,1740000,198203.614509519,28401.548647089,6503.6944839778,2933.6255593798,7292.3658849587
581,"N3",1740001,1743000,277644.831288129,32939.4845371375,7366.4727079126,3148.1070766269,7013.0918542629
582,"N3",1743001,1746000,198875.144519061,30117.3951855232,6273.2542772442,3024.033804331,6983.8532397055
583,"N3",1746001,1749000,300721.716054977,47707.1683323731,8249.2039194351,3670.8479444161,8030.7157219072
584,"N3",1749001,1752000,243369.118698908,43652.5542901735,8383.5189082895,3231.775110113,8814.7596067845
585,"N3",1752001,1755000,367991.03059924,48950.4662532373,8754.5729062246,3517.1479499134,9667.0799808162
586,"N3",1755001,1758000,347145.485236046,57124.7539251463,10245.509120593,3459.9527130519,8337.7897955258
587,"N3",1758001,1761000,316266.31140637,54038.4253501224,8035.5939949851,3700.9421195809,9620.7237642198
588,"N3",1761001,1764000,306145.436474769,42439.0929723755,8115.6067950529,3599.4266627399,9541.6279401203
589,"N3",1764001,1767000,299754.573685095,35923.754936831,7754.4772580038,3444.0723884055,9353.3325683549
590,"N3",1767001,1770000,415879.051237494,41695.4037000885,8299.4995599858,3316.3055672273,7559.2600092395
591,"N3",1770001,1773000,421450.31333076,52212.0751395224,12210.4395070044,4198.3526587412,10491.1402275034
592,"N3",1773001,1776000,461119.590457159,61053.2179211301,12169.1727418239,5643.2936830966,16700.5419944837
593,"N3",1776001,1779000,266028.334669206,47972.9287410383,10042.6380451764,4421.781081163,11698.1644094829
594,"N3",1779001,1782000,318202.228979958,44493.4631251003,9603.1916917546,4442.3885407808,12533.2038347234
595,"N3",1782001,1785000,220509.791925672,42090.4817442725,11629.0001908906,4625.1766794316,12673.033789193
596,"N3",1785001,1788000,178279.85003557,29916.0289332779,7233.7706390812,4058.2959797451,11176.9446114022
597,"N3",1788001,1791000,205908.12511214,49318.9905404177,7772.1216407427,3684.8990885815,9998.5952315411
598,"N3",1791001,1794000,181006.893260095,38483.5413747152,9808.9112216509,3014.7877605762,7277.938963499
599,"N3",1794001,1797000,345934.746542473,49117.9616415999,12442.5112138712,3445.4651519654,9066.2792905103
600,"N3",1797001,1800000,307921.397489311,46336.3216437436,8600.1594924744,3472.3562260587,9615.2627043425
601,"N3",1800001,1803000,315908.61973238,44181.4562323366,11631.1473919038,3787.8262467461,8470.6565587782
602,"N3",1803001,1806000,227212.042962958,31257.6495924327,7385.044399799,3923.1683687997,8794.3465595336
603,"N3",1806001,1809000,244529.987252415,36102.6116924894,8780.582769054,4064.2074026632,10039.4333957869
604,"N3",1809001,1812000,388552.169515048,59258.8731730058,12544.8849771303,4410.251665098,9486.0339146668
605,"N3",1812001,1815000,322635.769838335,50079.1332068435,7894.8831567362,2911.1096506075,7221.321591966
606,"N3",1815001,1818000,338246.74157354,40658.4904261608,7575.2056184635,3227.9428400535,7006.8233749517
607,"N3",1818001,1821000,261965.037930568,40832.487012944,8453.6844300619,3798.2230872888,8324.9235875629
608,"N3",1821001,1824000,297980.89610467,47968.976610249,8150.1314317155,3410.898213443,7910.8134868027
609,"N3",1824001,1827000,304071.636512253,49133.8916307921,8041.9084501808,2862.1127613013,6346.1474665037
610,"N3",1827001,1830000,336650.111552148,56208.8689308973,11619.5657783428,6206.854463079,16371.0479527944
611,"N3",1830001,1833000,306229.948296725,54888.3095948271,16301.1182761852,9076.0565310562,27750.6943283991
612,"N3",1833001,1836000,365616.111563359,38394.1360287647,19349.6459512892,10269.7610676433,33648.3715613563
613,"N1",1836001,1839000,380816.915658231,33703.1794538869,21182.8224088266,14260.8297030506,49785.0663196612
614,"N1",1839001,1842000,357098.171156355,34681.4514807293,15809.9579334495,7533.829816663,27703.9557708952
615,"N3",1842001,1845000,384877.287664336,29529.9397840793,9538.8491879421,6329.3047364957,16077.7937814274
616,"N3",1845001,1848000,280156.559713842,26267.1809968924,10797.9413930249,6776.4025364715,16324.8423012844
617,"N3",1848001,1851000,284790.972468307,33277.5437140826,11005.5930479187,4638.179356656,11369.9547100468
618,"N3",1851001,1854000,301952.491631412,29022.5620393658,8373.294224563,4560.9241582386,11420.2924192525
619,"N3",1854001,1857000,262614.919608157,29535.8453506219,11935.489160599,5706.689006256,13019.7954004439
620,"N3",1857001,1860000,189234.346805178,23418.5992028038,6894.9151123231,3773.2669191259,7904.0933103269
621,"N3",1860001,1863000,332460.677473833,23046.6149527645,13718.4988629391,8169.5631908737,26818.4714576784
622,"N3",1863001,1866000,240713.056106459,26815.8423597051,7359.7258133011,3582.8499970943,9174.4602048166
623,"N3",1866001,1869000,291940.32134337,33245.1009445368,9523.2232235569,4215.0975847615,10004.6745017889
624,"N1",1869001,1872000,164810.025211448,22250.9030168213,9616.4450290555,3915.9267643829,10269.470287572
625,"N3",1872001,1875000,233201.529373333,23940.1245097171,8015.4854302999,3890.5663231049,9240.2130469556
626,"N3",1875001,1878000,199228.690793222,29114.5659570262,8771.6483792364,4287.208773788,10875.2554013212
627,"N3",1878001,1881000,249428.849788424,28600.4805392842,7329.2091739736,3719.1622045389,10530.5238979987
628,"N3",1881001,1884000,282122.167232576,30355.8058900867,9700.3381414978,4688.4378841277,10818.3832017421
629,"N3",1884001,1887000,238440.000671697,27456.7452751452,8654.7600582538,4409.9296590134,9516.073550672
630,"N3",1887001,1890000,356280.168952424,21845.5042329043,9251.1497040806,5496.9648420468,13804.2019361438
631,"N3",1890001,1893000,687187.880366456,33306.647773474,9690.5305403169,5537.1447152064,10672.7989247134
632,"N1",1893001,1896000,383934.184651412,28311.765572052,11586.0695027217,6814.5317629186,22569.4527038788
633,"N3",1896001,1899000,338409.083975425,25716.0018881231,9833.0463157854,7098.2705042575,18374.1644961962
634,"N1",1899001,1902000,381583.834077496,25656.0341631093,13383.7334677541,6839.1441228023,19387.8263994179
635,"N1",1902001,1905000,336602.806819587,32903.1942720587,14506.1390107429,8355.2385252145,25899.8897775092
636,"N3",1905001,1908000,290363.685277929,24371.2114325705,12621.0781169697,7992.3062778009,22646.9538488934
637,"N3",1908001,1911000,268935.19091971,36528.7946256163,10324.9571684092,4096.5105847287,10655.7094523684
638,"N3",1911001,1914000,346993.34241921,38129.2596927451,8735.9367519617,3104.1273324816,6755.9662196477
639,"N3",1914001,1917000,182653.041526104,34318.2631985361,7496.9062299991,3060.4180221809,6951.5124771236
640,"N3",1917001,1920000,164155.25312773,29979.5149839833,8286.571805785,3853.0214126855,8371.7640436676
641,"N3",1920001,1923000,632793.38960982,45338.5189052406,13057.5536866359,5574.3418765817,17076.8948673889
642,"N3",1923001,1926000,217099.605198794,30692.5340864606,8349.4830762597,2643.1432205291,5894.5965457091
643,"N3",1926001,1929000,278929.388405445,39131.3610341463,9179.25562911,3763.7215737061,10925.7824171568
644,"N3",1929001,1932000,171943.265324875,29193.2561380684,10149.56356322,4521.9041155208,14170.4109695019
645,"N3",1932001,1935000,152353.911083746,31370.5830815781,10545.9983533512,5616.4783590109,19094.9720031568
646,"N3",1935001,1938000,251571.56932761,41221.30395108,12060.4222375139,6921.7964953655,26129.0565099903
647,"N3",1938001,1941000,274178.310636426,39054.0309429275,11287.4453279842,3951.6123101569,10281.5638271907
648,"N3",1941001,1944000,196504.951104772,39391.5582163881,11305.1021777057,4508.0500433675,11998.0016109851
649,"N3",1944001,1947000,133372.071711067,38621.7382409159,6881.4653741118,3170.2998004742,10644.1385723208
650,"N3",1947001,1950000,173748.257254204,46011.1636278123,6843.2763793451,3056.6465958682,11013.7756560716
651,"N3",1950001,1953000,281179.164320227,56930.7759594733,11638.97111078,5766.8651240307,20314.0229567109
652,"N3",1953001,1956000,276895.488971761,63353.6683802697,14369.9647183883,4696.2157922849,15357.8575406683
653,"N3",1956001,1959000,180323.403675513,64790.7391557138,11979.8198774039,5246.2090082971,15176.9070334326
654,"N3",1959001,1962000,223900.96253546,71283.4605567832,13654.8544115194,5034.5739937925,15957.2240456973
655,"N3",1962001,1965000,138900.533681321,42533.6122977222,9855.5004097388,3794.7172503004,13490.5117405922
656,"N3",1965001,1968000,210606.978926731,39693.5774128847,11133.0750699761,5302.984977858,19395.1818115411
657,"N3",1968001,1971000,224710.79063551,27735.126087019,9161.1659065679,4473.4497898325,15306.5760472041
658,"N3",1971001,1974000,258571.155459658,33681.7014646724,10307.4128360986,4844.409643649,17467.60718364
659,"N3",1974001,1977000,176291.329756757,26094.390889235,7841.8268239986,3768.6102463602,13788.1660417341
660,"N3",1977001,1980000,208294.099081629,46541.9783715137,11118.6026271316,4864.0722880087,18024.3501444733
661,"N3",1980001,1983000,233895.027590264,34386.6193053849,9953.5946864055,4792.0920372325,18379.6630437433
662,"N3",1983001,1986000,144401.028208227,24706.0008421612,8938.600488297,6546.556227844,20111.6495438039
663,"N3",1986001,1989000,301876.510227505,50484.0954117559,10425.0741297227,5405.5653879397,15726.312398057
664,"N3",1989001,1992000,219905.399986982,29265.0134898378,9672.8574564175,4000.1479205299,15457.626670546
665,"N3",1992001,1995000,237979.43945072,39070.7085653157,10246.2410323727,4515.0625957972,15435.5393585588
666,"N3",1995001,1998000,337558.192018617,46480.5547075519,11133.3924046292,4981.9921682694,15280.731683105
667,"N3",1998001,2001000,452794.873837825,44118.3493620443,10716.2930926799,5893.8012864655,13060.9132726187
668,"N3",2001001,2004000,432994.232279489,57598.33308285,10582.1005054276,3949.9686879907,8591.1352728314
669,"N3",2004001,2007000,338498.578356634,34479.2162574849,8730.2909035071,3915.1734085943,10197.0343521119
670,"N3",2007001,2010000,316312.146849118,49822.7707108553,10784.0192267096,4084.0852065067,9375.9547611295
671,"N3",2010001,2013000,343693.601588588,51065.7539746431,12195.7104668725,4431.7582047771,14769.7949551964
672,"N3",2013001,2016000,410192.813978669,56182.1042216652,10890.2045846672,5076.7652769176,12377.816328998
673,"N3",2016001,2019000,381246.56322359,46782.6877237059,11975.7761818158,5010.7800644511,14242.0305645554
674,"N3",2019001,2022000,298326.896246832,31804.2279534245,11838.4906228738,7286.5205359243,25169.396367666
675,"N3",2022001,2025000,267052.838885946,47078.3714657368,11203.9816381091,4911.1177709627,11558.4381507701
676,"N3",2025001,2028000,374097.911937374,48250.0112655665,10175.4516127463,4274.885493738,8089.7641078302
677,"N3",2028001,2031000,298165.932118824,47231.441846871,8726.9336241687,4037.2590165099,10360.3044733261
678,"N3",2031001,2034000,346568.08316956,38148.2237397541,9035.2309608228,3815.4705552446,8250.5050853949
679,"N3",2034001,2037000,340702.649282629,39888.9112220165,11087.9422876658,4128.8200442592,9354.4850058386
680,"N3",2037001,2040000,267066.482388962,48031.1246118038,9987.5926839433,3751.1399141853,9589.9014543509
681,"N3",2040001,2043000,296922.417428785,36397.8373958198,8087.4106803956,2933.091420089,7944.2431148979
682,"N3",2043001,2046000,413994.846411907,38609.7513018768,11421.3226796398,3356.4811232391,8429.223402487
683,"N3",2046001,2049000,355773.519668692,36273.9001561893,9194.0296418607,4330.4796977143,9832.5888399592
684,"N3",2049001,2052000,220989.036433355,30866.5935802404,8442.3555001976,4321.7791749294,10916.5354993758
685,"N3",2052001,2055000,167557.341490718,33897.5813279523,10976.8541937177,4641.4133855172,13850.4895307531
686,"N3",2055001,2058000,323568.897518973,38689.5577583369,9322.1017062602,5131.3028636576,17153.4823454908
687,"N3",2058001,2061000,234660.638870588,28853.5142060498,8984.5912675355,4148.6696739664,12610.0503402634
688,"N3",2061001,2064000,290471.634254775,34107.0916884149,8192.8555605443,4287.199757996,10709.5411124526
689,"N3",2064001,2067000,158983.728847728,23005.9163906497,7215.9987919748,4069.2129211039,10938.805740157
690,"N3",2067001,2070000,155040.588602468,28951.887285751,8811.9431521549,3682.3519659929,12170.7734636352
691,"N3",2070001,2073000,245592.891453293,27319.6242884057,6431.7128369597,4577.5421034774,12778.3547611699
692,"N3",2073001,2076000,138796.731065002,28809.5320876123,7523.1943883484,4050.9228926358,14227.6190084278
693,"N3",2076001,2079000,203310.849944574,24103.1899333052,8379.3658642609,3971.42937667,11533.117972126
694,"N3",2079001,2082000,253104.055591001,29830.7990756707,9513.4812536766,3679.2054766589,8972.3100352908
695,"N3",2082001,2085000,229841.432545273,33849.4668760272,8161.3435205908,4219.3446678219,12363.1243779282
696,"N3",2085001,2088000,129021.796233438,34163.2112598316,7255.8845462027,3602.6778881137,10142.1963409801
697,"N3",2088001,2091000,173766.700400635,34619.2565550324,6403.2655776115,2342.5680393027,4699.4867384151
698,"N3",2091001,2094000,179031.393329277,30987.0038466923,7288.1821394257,2926.1405914718,5948.0435405235
699,"N3",2094001,2097000,233044.22262963,29862.5901258505,6614.1406681347,3076.5043751151,8365.2218844566
700,"N3",2097001,2100000,214128.108639209,29528.0349480822,7847.7803259115,2975.3842795429,6907.8432848058
701,"N3",2100001,2103000,137856.744242492,30925.4013369932,7470.4879086677,2697.172574489,6873.7745292424
702,"N3",2103001,2106000,175872.111297018,29401.6321851378,7366.6207558291,3428.9009053482,7521.4555249411
703,"N3",2106001,2109000,186638.939749466,28545.972392586,6413.0838450181,2820.3382281443,7928.9684025953
704,"N3",2109001,2112000,197148.75624709,25279.0996450497,7403.0827379378,3256.7693894683,10515.5554978651
705,"N3",2112001,2115000,172014.172687942,31513.5727076184,8781.4969949661,3708.5155721764,9476.9793948066
706,"N3",2115001,2118000,213963.308229211,33629.9539466419,9462.1760867059,3839.0794757206,12472.321904784
707,"N3",2118001,2121000,322374.234928276,68497.3691868753,11634.5902878305,4493.9176548846,14302.9654784706
708,"N3",2121001,2124000,236670.207685724,50342.488197154,9034.970064823,4243.7605573271,14551.3954501653
709,"N3",2124001,2127000,161913.553205684,27827.4641760408,8720.853863565,4060.1745665917,14476.9335829015
710,"N3",2127001,2130000,160978.359785855,46723.1468532203,8654.8786456006,3679.4096076938,10964.048771048
711,"N3",2130001,2133000,294986.358066237,40906.1156160633,8357.808325605,3824.8300359104,10895.6926966819
712,"N3",2133001,2136000,266258.266704983,30603.6219173897,8292.8400459614,4472.1850484141,15900.2549754627
713,"N3",2136001,2139000,271575.026196806,34559.0802355122,10858.0427666035,6518.283241652,24335.0923269338
714,"N3",2139001,2142000,244114.054810568,40454.8610725522,10162.1692405681,4286.4130636604,13184.1560717083
715,"N3",2142001,2145000,256624.340906132,56456.3805310443,9878.0115692122,3376.5314026243,9518.292033124
716,"N3",2145001,2148000,250395.013252775,45105.5618186771,11783.4334894349,4848.8515747772,15097.6237983136
717,"N3",2148001,2151000,255712.501851899,52682.217900569,9803.2910102785,4337.8252665505,10180.2923249456
718,"N3",2151001,2154000,225583.807714451,36476.2193278999,8296.8784423963,3864.603816722,10380.6080193696
719,"N3",2154001,2157000,277162.887566869,36096.2775100047,9077.2887468746,4714.9378814827,15580.4805165663
720,"N3",2157001,2160000,285663.370997917,33127.7404181806,7788.8950616332,3940.752768768,11021.2797985243
721,"N3",2160001,2163000,279071.247517178,50154.1491393474,8903.8366393515,3228.2373858995,8698.7611356673
722,"N3",2163001,2166000,644165.26490176,69822.3088634633,14466.8696965998,5124.6671490127,12888.2167795
723,"N3",2166001,2169000,349170.733357714,62675.1236834084,12456.1412458358,4876.9796848533,13950.609331548
724,"N3",2169001,2172000,236386.992659593,77815.372316364,10244.0188764263,3064.5855494186,10430.9683038919
725,"N3",2172001,2175000,218572.362607158,54845.5656645652,10950.6948474693,3199.0725380883,10451.3639595552
726,"N3",2175001,2178000,287761.073744288,59075.1509645153,12508.5712786248,4768.7269923057,13956.4458845235
727,"N3",2178001,2181000,203072.015291539,44863.4647168276,8691.2304659354,3598.7597169102,11838.563599087
728,"N3",2181001,2184000,216016.796227179,49877.8987919118,9027.7119703762,3942.3259703175,13840.4632107192
729,"N3",2184001,2187000,213427.792954763,50128.263764451,9012.5903444039,3144.1772317474,11722.3509304044
730,"N3",2187001,2190000,217388.401282589,56888.3828073753,10654.2524902064,4480.1403769502,15481.8275322329
731,"N3",2190001,2193000,245374.915104689,39589.0325887526,8015.6530311577,3831.2018392153,12790.6882082901
732,"N3",2193001,2196000,214220.697235182,63067.731936026,11708.1766183053,3807.1080651417,10757.548720706
733,"N3",2196001,2199000,192803.005106914,47536.0528635106,8594.2363443039,3363.8638869139,10944.9166237425
734,"N3",2199001,2202000,246116.019430214,55270.9465037176,9116.0169241403,3836.7306847916,8239.3474044908
735,"N3",2202001,2205000,277419.26437563,57071.8910746417,10410.7239839842,3813.8327543533,9622.9822446403
736,"N3",2205001,2208000,541921.204563039,55658.6434681473,11209.1854045286,3151.5724779754,7402.0432867057
737,"N3",2208001,2211000,258179.577918786,54046.3811699301,7344.3552235008,3112.4447813772,6865.7278414815
738,"N3",2211001,2214000,589839.904030745,34573.953254809,9017.382671514,4022.4924469951,9983.8034370342
739,"N3",2214001,2217000,421319.133190204,45924.062883012,10087.152673404,3369.7923746405,9527.5720843975
740,"N3",2217001,2220000,346506.715207269,60720.7120495236,11121.0128767123,2904.0884026856,7576.7291257047
741,"N3",2220001,2223000,309843.704624748,42977.4620247569,8079.9261325677,2627.9685127214,7912.8654474679
742,"N3",2223001,2226000,341340.968497437,52138.7805017861,20310.6389114978,15342.522115926,46271.1475330664
743,"N3",2226001,2229000,365191.998792431,52046.9674314909,20161.0737484064,11014.7314074172,36485.2016045776
744,"N3",2229001,2232000,322278.105643238,39800.6376848721,12325.8357588963,7872.5823486069,23859.9977456055
745,"N3",2232001,2235000,533034.964024336,48184.8691571676,14798.2618469376,10126.6641255532,24142.9074271574
746,"N3",2235001,2238000,545955.669670916,111618.599559587,25224.8532851117,13473.4886739747,39074.4367726359
747,"N3",2238001,2241000,425772.719016102,89343.8688572681,17170.2448865772,11336.3643163038,33494.0664917969
748,"N3",2241001,2244000,374818.812506852,77732.6774435393,11720.0432439563,4363.6689394599,14667.3068265624
749,"N3",2244001,2247000,376669.13632041,53804.9255198147,13963.4212604716,7792.306684984,22340.6555537579
750,"N3",2247001,2250000,406568.914220232,63266.7345574438,10238.4554761714,4368.4339376151,11191.9542607811
751,"N3",2250001,2253000,352340.422182518,62782.8130334901,10695.6964888686,3595.8739611862,9359.494222622
752,"N3",2253001,2256000,331549.493759395,63828.0281581774,9741.0441770546,3867.3326863937,9536.2024583982
753,"N3",2256001,2259000,241076.108583302,40113.5427558172,8420.818053909,3822.5931750686,11998.0545074874
754,"N3",2259001,2262000,303405.267971698,67414.2344343793,9139.3281604207,3494.5419298366,8328.8568776146
755,"N3",2262001,2265000,379414.478121456,65088.241563414,11816.9980264592,5331.55774064,15235.5804408905
756,"N3",2265001,2268000,326158.976259626,56225.5154229597,20127.7803678078,12503.2098159503,37245.962259003
757,"N3",2268001,2271000,383777.866165588,75282.1260935182,15638.6458123305,6660.1797038235,18282.2368448087
758,"N3",2271001,2274000,359148.079936422,63670.2354380505,15804.6722374811,10767.8381785783,28313.7594194581
759,"N3",2274001,2277000,493342.888021138,66394.579656277,16450.0809692215,7861.8403542624,23977.0867343442
760,"N3",2277001,2280000,337790.408897883,61433.8574312107,9499.7693648432,3178.085077788,8069.3264568207
761,"N3",2280001,2283000,266782.168302424,44763.4841146974,7833.6385536138,2469.2138597166,6565.5812297739
762,"N3",2283001,2286000,270057.156448958,57126.5947333163,10269.6809270042,2843.364770945,6624.9980326255
763,"N3",2286001,2289000,305022.770644547,47206.5818749315,7672.2599939522,2362.3405364142,5953.2790266772
764,"N3",2289001,2292000,344683.689675032,43600.355435287,10728.68208372,3222.2994771787,6907.3849044557
765,"N3",2292001,2295000,244172.627570915,34132.1437204764,7556.9618126594,3093.0080363237,7330.8939876633
766,"N3",2295001,2298000,205752.847160393,41468.7294216353,7093.9756691798,2514.6217227334,6008.8233108668
767,"N3",2298001,2301000,348218.885084597,52619.8713329237,7769.5350381128,2924.1219205333,6369.9912094194
768,"N3",2301001,2304000,384395.679499255,30175.0630457672,8336.9243214067,3773.4479840916,9151.3979892735
769,"N3",2304001,2307000,438057.627644738,34242.8746059674,9241.4502640786,3634.3075384175,9123.5326818372
770,"N3",2307001,2310000,241467.888727874,38128.1610608894,9526.6870713422,3462.3297419711,10141.8091606883
771,"N3",2310001,2313000,255356.148553872,52852.5234891614,10745.0129136901,3835.1181851447,12760.1158758973
772,"N3",2313001,2316000,346723.652844769,53868.0807279354,10106.7499030468,4124.471524482,12803.1877096762
773,"N3",2316001,2319000,326131.864125671,31005.0940676507,7364.6647357572,3356.4036120202,10217.3509941716
774,"N3",2319001,2322000,362520.991023716,54262.2084669683,14342.5779067081,7540.0395715877,19390.0593865583
775,"N3",2322001,2325000,357600.585144375,52888.3273034939,12950.6000469273,6707.8656182258,19482.8037152326
776,"N3",2325001,2328000,448069.050585579,78714.5809204757,12772.3312126345,6520.0723556814,18119.8914803529
777,"N3",2328001,2331000,408932.019238516,57173.33269042,9644.8352086777,3997.4041131651,10979.7889550684
778,"N3",2331001,2334000,302227.770506987,38552.2768045119,7798.8150201764,2905.9056309078,8848.7156289511
779,"N3",2334001,2337000,354951.140800633,42509.2759563129,9517.3798175347,4036.7064242327,12408.7254838859
780,"N3",2337001,2340000,368501.274102479,82225.8899496732,18098.5640032996,10232.8940283864,27754.6215277897
781,"N3",2340001,2343000,366454.066880552,52313.0742539174,11000.6230703581,4621.4054526115,9057.4815290817
782,"N3",2343001,2346000,384031.191128389,30320.9872988741,7810.8409198877,3617.4310024796,7939.6714369234
783,"N3",2346001,2349000,220343.462230019,41555.654029277,9796.601349308,3861.6790285262,10468.4473160344
784,"N3",2349001,2352000,235474.17008896,34066.9929487016,8489.166481759,4465.3441180736,11080.0023677338
785,"N3",2352001,2355000,359840.681440136,41896.9733328012,7932.6489485938,4030.3322397473,11451.4898094987
786,"N3",2355001,2358000,254011.450432165,58755.4499128319,10945.1061581017,4388.2935315867,14874.5900350941
787,"N3",2358001,2361000,319427.732512105,48403.9744265377,9651.0777639543,3810.8737992576,11459.1981223868
788,"N3",2361001,2364000,256020.287125908,47199.8477445106,8623.8362850266,3158.3057487474,8596.5871286885
789,"N3",2364001,2367000,339793.535040192,39565.3235846917,8697.670671232,5460.5502399341,14113.7740530381
790,"N3",2367001,2370000,343942.858676762,34571.922016127,9628.2313728732,4089.2387140603,11188.7686706391
791,"N3",2370001,2373000,370848.55667685,62022.5577110081,19788.5201854193,11284.2946737638,31178.4794340601
792,"N3",2373001,2376000,518521.731150466,68142.800092461,21276.4111080332,11388.7972973615,30497.4596543204
793,"N3",2376001,2379000,372562.951931926,28404.6938032039,6486.7605202385,3290.9517459733,9639.4640580288
794,"N3",2379001,2382000,285830.074072033,23598.3379763558,5859.3254218298,3033.809254902,9298.9793848945
795,"N3",2382001,2385000,409695.463402967,37178.9406881815,15871.2651715442,10256.974991402,28803.6433428818
796,"N3",2385001,2388000,656890.565621645,40063.2403133866,15134.968197838,6787.9025487702,20545.0851813172
797,"N3",2388001,2391000,740597.29083941,37511.4144092504,13203.8188222718,5927.8214667593,18287.1470366261
798,"N3",2391001,2394000,195867.578247809,24674.6200174882,6487.4489416934,2879.5601756631,7931.8559008877
799,"N3",2394001,2397000,297584.237052852,35856.2698530106,8276.0971239568,3225.6818083138,7423.4167007
800,"N3",2397001,2400000,302498.856300983,40519.5289447237,8679.3059649686,2175.5642187797,6192.7705286438
801,"N3",2400001,2403000,287522.291791941,36128.2619715554,8327.336666976,3394.3965885795,6910.306512474
802,"N3",2403001,2406000,223767.42675459,24606.1636891198,5726.4297078194,2577.9357973689,5335.8013478761
803,"N3",2406001,2409000,147894.189236252,19690.5091001613,5304.2163729357,1942.565743875,4382.0579170683
804,"N3",2409001,2412000,329822.316386071,29136.5814202508,7411.4234266809,3176.2933558356,7532.9619573504
805,"N3",2412001,2415000,399936.423763584,24032.0335592529,7113.2506557428,3111.4703865784,6759.7749735538
806,"N3",2415001,2418000,237637.209022644,26434.4279660807,7932.356143145,3247.8665458066,7545.4205255309
807,"N3",2418001,2421000,148195.427214123,21982.0632625237,6954.6365756276,3436.2806477748,8878.0281175612
808,"N3",2421001,2424000,230970.769348513,29582.0359721864,9489.1879114613,4418.9018736463,12384.8600720281
809,"N3",2424001,2427000,322216.372489141,38323.8306056407,11395.5385395907,6764.5469099132,19956.1216621979
810,"N3",2427001,2430000,192846.681577885,28426.6625291622,6692.3570059679,2806.7817033293,5963.4752638819
811,"N3",2430001,2433000,244890.770640725,28357.0132785671,6339.5101845845,3027.6843934835,6550.8843468259
812,"N3",2433001,2436000,451070.402759259,31906.4184781201,11070.0531318378,6275.8144657822,16173.4072039252
813,"N3",2436001,2439000,393644.202599183,37669.8774292542,12782.7036548316,8037.747502875,24701.9509658836
814,"N3",2439001,2442000,318974.365529806,27337.2976499847,10736.003119864,5611.0121189005,13821.781118912
815,"N1",2442001,2445000,512285.856820942,43809.7678335002,18720.8851790218,11617.4604902781,35002.2963109686
816,"N3",2445001,2448000,553662.498080631,66342.8558856764,17878.6139380449,9567.3761071678,31349.4472911769
817,"N3",2448001,2451000,391663.659338636,55318.3369166282,12715.2494908954,6058.9935881038,22432.7740806162
818,"N3",2451001,2454000,458995.397417479,41944.5257162023,10290.062419641,4486.2439108584,15823.1984621503
819,"N3",2454001,2457000,309844.554238171,50896.9795845851,10458.664146713,4280.7575429414,12199.8077025849
820,"N3",2457001,2460000,263882.243789619,41167.2103510615,8792.0277354332,5501.1683077327,15674.4921122481
821,"N3",2460001,2463000,309221.120672048,29476.082378297,10105.9832442041,6145.0701830911,16549.0947762274
822,"N1",2463001,2466000,238536.079309375,19455.8631740104,9511.3523828471,6347.3463258472,19164.0804974728
823,"N3",2466001,2469000,628037.06904415,30089.4319452429,16202.4888759799,9694.0687489113,29199.9333734599
824,"N3",2469001,2472000,457644.446821717,35531.9545409432,9653.9531221329,4888.6045954068,15709.1583896873
825,"N3",2472001,2475000,336501.659600569,62434.8091135558,10722.0018371554,3830.9106382816,12152.3092446787
826,"N3",2475001,2478000,270074.056906417,44232.1036000167,8728.7923285855,3200.5898765689,12387.225222392
827,"N3",2478001,2481000,215786.961636179,46331.0216497035,8776.9139721067,4028.7087814807,12420.8010347822
828,"N3",2481001,2484000,246672.192333377,44461.4915169485,7866.1696390214,3742.6907857817,12615.6873910802
829,"N3",2484001,2487000,308472.039583279,61106.1708234723,9678.4058457885,3468.7003447741,11843.7046397466
830,"N3",2487001,2490000,177758.048683585,38369.2523853351,7213.129056884,3622.6043455516,11762.3633070643
831,"N3",2490001,2493000,225385.64026307,42901.1001934991,7455.737925769,3213.9803963987,11409.3978000749
832,"N3",2493001,2496000,147759.038115858,38526.3707008374,7905.8681993992,3060.4648780452,10973.8612101832
833,"N3",2496001,2499000,208372.906147226,33229.3732270938,7473.227126998,3853.9976824534,11315.217300398
834,"N3",2499001,2502000,242813.600136624,40257.8083314499,8153.2208081174,3763.9026555415,15714.5924536671
835,"N3",2502001,2505000,432808.627181271,50799.109617161,12837.5103256606,4234.2396159256,13721.9431653023
836,"N3",2505001,2508000,233319.288543694,52866.0206974324,10625.8655523638,3684.6432902573,11324.5039516279
837,"N3",2508001,2511000,305538.255214194,34583.04274186,7525.0391910815,2971.442303272,11407.0728031501
838,"N3",2511001,2514000,252588.280272419,40868.532294124,7806.1110355714,3619.0069922627,10846.6227017855
839,"N3",2514001,2517000,292210.249974227,42898.0585213053,8035.4664293422,3201.458823807,8508.4117151703
840,"N3",2517001,2520000,302157.213544439,51597.9448328889,10425.3783660549,5004.210245305,15283.5647803125
841,"N3",2520001,2523000,322999.902127801,59274.3781763606,12020.6722426562,4496.9330263733,15851.8791587899
842,"N3",2523001,2526000,197165.871759395,48370.6254131268,9418.7136474215,4239.405176147,16357.0321144628
843,"N3",2526001,2529000,239576.836828905,38721.8407162649,9141.5053447303,4724.2332128828,16674.7478620569
844,"N3",2529001,2532000,272108.944672594,39332.2392492475,8516.3829904466,3174.6462698579,10226.2255763898
845,"N3",2532001,2535000,254283.950482586,38644.2120772242,8857.5363786615,3775.7282283537,11878.9078848806
846,"N3",2535001,2538000,371888.749928354,31705.9329740751,8236.8311484114,4095.4551532115,12228.3602033215
847,"N3",2538001,2541000,335682.018907173,37357.3581194813,9390.7901398059,5156.3302856411,23478.2902861221
848,"N3",2541001,2544000,431243.511617079,51663.274911457,10679.3739044356,5202.0039207748,17127.1720658354
849,"N3",2544001,2547000,402821.950731238,40600.5416685664,10290.0816811074,4498.6678226514,12989.6291486279
850,"N3",2547001,2550000,214313.938762063,51498.3654141857,9858.4961428208,4268.3429294894,16274.9914683473
851,"N3",2550001,2553000,230425.569536165,54589.8984531646,10390.5995671548,4133.1883956361,16122.9784798638
852,"N3",2553001,2556000,258233.195221326,55498.1196148302,10235.1033938349,4401.0956303478,16503.6310273277
853,"N3",2556001,2559000,312286.03883897,55072.9059310425,10741.7950172685,4020.7382733817,16260.9756864867
854,"N3",2559001,2562000,329785.397174698,52677.9916112417,15047.6990045135,7340.2740022608,26398.2499151479
855,"N3",2562001,2565000,510451.70815105,89967.2638643399,21225.2893458765,10586.9416442567,38930.6103834607
856,"N3",2565001,2568000,541986.798134786,69848.1009940309,18604.9627044328,9796.5443525132,31223.0416490012
857,"N3",2568001,2571000,523079.583516636,77703.0715041354,15781.7419692754,7651.4602203354,22552.2775426731
858,"N3",2571001,2574000,689198.749527498,52937.4893481961,11005.2158634988,4613.9354551216,13502.2030777757
859,"N3",2574001,2577000,429176.892890228,61636.4408600501,10163.6383066353,2870.3143891848,8811.3071651784
860,"N3",2577001,2580000,399622.839922315,46947.9337013271,8359.2989776754,3401.2570872302,11817.6287204162
861,"N3",2580001,2583000,407868.33982008,39808.9347227915,8952.0430252144,5015.081924626,12878.4029611772
862,"N3",2583001,2586000,366841.664978061,51044.8237781749,8409.6167045068,3122.9497043633,7783.5599719763
863,"N3",2586001,2589000,608116.000615575,59367.3915363259,15499.2281730532,11061.4193569174,36423.8803932131
864,"N3",2589001,2592000,362635.387593409,35416.3426318949,13570.9626780995,8879.9433128434,24987.9272018204
865,"N3",2592001,2595000,556631.798695578,29764.4150875041,8983.9206389326,4773.8210077396,12343.8107491674
866,"N3",2595001,2598000,320437.742511712,21471.2785529744,8537.7637802535,5376.5163389516,15566.0636291781
867,"N3",2598001,2601000,674311.333967296,47516.0272808361,18050.9606789005,8936.0238295083,26686.6863415549
868,"N3",2601001,2604000,273977.09881387,23607.3062772649,8521.9951501902,5031.7177349829,15866.4150469028
869,"N3",2604001,2607000,473457.39283982,24888.6354674489,9500.1439497775,5012.385892442,13432.0080777879
870,"N3",2607001,2610000,366170.530570423,46560.3511725973,11151.0324794632,5955.8304406485,16117.8583596892
871,"N3",2610001,2613000,417688.322572503,42691.9669338701,10166.2178941706,4862.6476834918,14045.5904497327
872,"N3",2613001,2616000,400722.483308098,35561.2901212544,11310.3038205655,4768.0543109907,13048.5254806705
873,"N3",2616001,2619000,423495.682323958,42581.123963477,11676.6996558137,5974.2381288126,14035.7801115944
874,"N3",2619001,2622000,430105.373801518,41636.9131236299,11730.3747085904,7087.3102144311,16628.539425561
875,"N3",2622001,2625000,309682.595292907,22134.0312570848,8415.7782573659,3631.5163290462,11099.5022070009
876,"N1",2625001,2628000,392625.51202058,29652.9070176537,7339.3547903353,4196.848943644,11966.1855191716
877,"N3",2628001,2631000,442692.021488208,48409.7806054475,18217.4373538809,10995.1247291816,36284.5034647639
878,"N3",2631001,2634000,189232.326306982,16814.8272818815,6551.5382762246,3729.2703736327,9324.7593178887
879,"N3",2634001,2637000,332054.401623045,29150.603450121,8373.3243354113,4554.9909431942,13057.1376303379
880,"N3",2637001,2640000,590681.785982931,41012.5502396239,20331.6148073484,13179.0749675457,38576.6226184067
881,"N3",2640001,2643000,555646.174048801,46285.2721690551,18941.1425400263,13134.1505143154,40296.7307206944
882,"N3",2643001,2646000,610738.649632957,42829.3620743646,18622.1187399587,13848.6585774245,37777.0536197968
883,"N3",2646001,2649000,427539.336021948,38868.9895999664,12556.0246223948,6781.7285831286,21036.4380349616
884,"N3",2649001,2652000,279777.358982119,35768.2804750125,8320.1661104909,3603.4062504909,10508.0528320602
885,"N3",2652001,2655000,405132.783340762,34362.4901565729,10494.2410892833,6309.7968702567,16433.8190146119
886,"N3",2655001,2658000,524449.065987811,41776.9592848726,13016.4201443328,6622.9840705145,18033.3821527291
887,"N3",2658001,2661000,485713.613634188,41363.6023017649,15000.5923319981,9823.5964995627,28851.7054398634
888,"N3",2661001,2664000,604530.203418418,34101.2600706122,15940.8522003918,8213.1432066094,24947.9722550669
889,"N3",2664001,2667000,373838.999986695,32284.1746068896,11642.6500977923,6457.0820299261,18677.8729457819
890,"N3",2667001,2670000,541391.53821444,40248.8446188539,13779.5674419711,10213.5035742152,31061.9951421807
891,"N3",2670001,2673000,779778.329302654,55718.2008767589,20576.3629119425,12999.3295092467,39478.770337733
892,"N3",2673001,2676000,697473.9446398,36571.5459015257,13974.4871936286,9427.77695908,30557.5659704611
893,"N3",2676001,2679000,557766.320274484,40676.4117852641,10872.2157140202,6510.2216373355,20722.3444970551
894,"N3",2679001,2682000,671939.880556832,45048.6387337264,16052.9449021128,10298.3560791295,30731.7394757213
895,"N3",2682001,2685000,883349.634258193,56772.3601400614,17133.5525855955,8327.1565740611,23700.8681161518
896,"N3",2685001,2688000,1153047.99708721,68732.3614294146,20163.2545526384,12495.2428922964,38911.6811401414
897,"N3",2688001,2691000,1027577.71823329,35633.296563219,12750.522586238,6218.5698028745,17647.6501556846
898,"N3",2691001,2694000,1023880.54843495,44504.9062339506,14973.8831874726,9061.6687481717,22227.816726315
899,"N3",2694001,2697000,975887.146109684,46622.3830332241,12961.2902606991,5614.5584817389,15666.8663144005
900,"N3",2697001,2700000,500615.084399965,39191.0455532627,11458.3225694468,5628.3365700185,13669.3144479719
901,"N1",2700001,2703000,610527.636882329,31460.5957741071,12432.2894247677,7742.4549940246,21465.3260512955
902,"N3",2703001,2706000,402765.251670075,35414.2278530843,11105.008881602,6063.3537273551,17099.9755536508
903,"N3",2706001,2709000,458299.639761207,35255.9448357677,8671.4029832786,4351.4391140156,13097.1257156451
904,"N1",2709001,2712000,292489.184415984,43145.5712572623,8681.2767493279,4441.2121687925,9811.1142316183
905,"N3",2712001,2715000,298555.874690947,45686.7752367464,6993.2729662464,3384.9487104059,8274.7029270997
906,"N3",2715001,2718000,339443.004324907,38315.398845849,8388.6380186055,3186.1826473649,8043.0472940171
907,"N3",2718001,2721000,296953.544236597,27808.9377206821,7305.5532431378,3243.1959647783,6736.4983634244
908,"N3",2721001,2724000,396700.499834208,49491.6057124927,9097.5292841411,3536.5171113784,8860.9348084238
909,"N3",2724001,2727000,309624.941147308,48239.8277810055,8787.4729987417,4154.1504445988,11624.5479992822
910,"N3",2727001,2730000,332170.803049294,32355.4144064767,8248.948313774,3384.1719752619,10138.5126896909
911,"N1",2730001,2733000,487704.690495406,34772.607080387,8917.1174489631,3519.2951256229,9478.6250903836
912,"N3",2733001,2736000,569801.323142995,26126.1164484072,9731.3823156731,5321.3768198868,15277.6644294227
913,"N3",2736001,2739000,576475.594990327,43199.9729246454,14074.8791539038,6751.3517916865,20145.9150284223
914,"N3",2739001,2742000,595561.207785552,58987.3406556185,19815.661414031,6618.4992096666,19578.0617035546
915,"N3",2742001,2745000,558306.069936627,56403.6757764265,6878.9971086222,3520.8596847921,7957.0308116809
916,"N3",2745001,2748000,377719.103962863,30668.7186579893,8753.6705793431,4392.2191019894,13356.2403427118
917,"N3",2748001,2751000,389967.570204711,42765.9313949642,10279.4806955808,4502.2358618376,10899.5774047835
918,"N3",2751001,2754000,449528.286608351,40436.1722309225,9297.1518520035,4092.0698209806,11678.1739848431
919,"N3",2754001,2757000,341655.890915283,47186.2375518475,7592.2159301746,3694.4817211329,9850.8149162901
920,"N3",2757001,2760000,504097.800882908,54067.0943713005,8100.813641012,3209.3083331208,7194.944937164
921,"N3",2760001,2763000,497592.370585123,52854.5324623268,8429.0422549923,3462.303811774,8412.3192527743
922,"N3",2763001,2766000,526385.125305253,54464.7584937824,8520.6437959561,2966.5123863238,4575.6501285574
923,"N3",2766001,2769000,375353.42576335,30714.964560024,7043.8965458622,1819.4475781108,4238.8210075637
924,"N3",2769001,2772000,264692.823320627,28391.711516365,5894.4091274582,2378.7526633519,6863.2119953558
925,"N3",2772001,2775000,187545.407863592,28376.0035957215,6523.4591492555,2993.5020449129,6921.1671091237
926,"N3",2775001,2778000,187090.992729132,26418.4653470933,5591.4739509583,2681.1742373124,7061.0892891826
927,"N3",2778001,2781000,279394.665750152,32268.7459569922,5749.4921393367,2127.4570756756,4736.4562300078
928,"N3",2781001,2784000,148644.189267831,28416.8602318843,7193.9737754486,3642.7997791393,9448.0182426175
929,"N3",2784001,2787000,147557.338498308,18242.5429784657,5738.0088731787,2134.5710310682,5363.5492255657
930,"N3",2787001,2790000,250582.364683254,24135.2043678771,6221.0211593901,2122.3289977388,6025.1286459884
931,"N3",2790001,2793000,214159.307904365,25428.3102918275,7319.6418870832,2770.7478446218,5795.2531838539
932,"N3",2793001,2796000,263129.831126182,27519.6268552109,8583.2487202716,2890.1820836441,8231.5997823579
933,"N3",2796001,2799000,220401.987661271,26989.8009172718,5956.4133868132,2441.7687495676,6533.4120198452
934,"N3",2799001,2802000,238771.808016342,29502.850390149,5651.6151836779,2513.37208015,7208.9019665765
935,"N3",2802001,2805000,201245.903770232,31100.9831495788,5253.8717128879,2462.301553407,9155.8627041854
936,"N3",2805001,2808000,215960.702637821,32413.5371829107,7163.1706874948,2952.2514869573,7505.531528487
937,"N3",2808001,2811000,194804.317068382,35107.5525552413,7538.0158083859,3903.2469392787,10022.8811679045
938,"N3",2811001,2814000,274237.510471438,32880.2689328899,5594.7041077582,3869.7998407625,9107.880608864
939,"N3",2814001,2817000,189364.878772105,25862.1711659665,5096.9444379704,2487.3170958573,8076.5169548631
940,"N3",2817001,2820000,275568.551837075,25352.6824781074,5872.7857671038,2629.4338675119,8991.8834307184
941,"N3",2820001,2823000,242556.732259417,28811.0338923687,6272.9379650722,3260.5152958359,8615.2366739672
942,"N3",2823001,2826000,214497.501965367,23990.8075520804,6880.1437444709,3552.7919765346,10254.6956093269
943,"N3",2826001,2829000,233170.587391796,21512.035752331,8199.3287873053,3621.2005088775,12956.8782389302
944,"N3",2829001,2832000,183852.405172227,26596.9778077419,8545.2531288674,4041.5153048274,15793.0291521234
945,"N3",2832001,2835000,251932.748344439,26441.7544891411,8436.6792489272,5812.2471973881,22272.3694246721
946,"N3",2835001,2838000,296260.386805887,35861.9601840878,8250.1775405412,5124.9743751601,22175.1143427854
947,"N3",2838001,2841000,226190.641224685,26577.3419682792,12302.1626678588,5241.3301873987,22884.7420510296
948,"N3",2841001,2844000,358098.205541778,40971.798303639,7742.955430349,3877.4162591469,15818.5504308476
949,"N3",2844001,2847000,255288.935613693,30103.9907193967,9370.5738701853,4702.3026835944,17803.0503284217
950,"N3",2847001,2850000,192236.266595955,27202.7408232705,8405.5216174461,5253.526549186,23880.8031605726
951,"N3",2850001,2853000,118982.310191107,15407.6803437956,7128.6789306645,4899.1366418293,22878.2051391687
952,"N3",2853001,2856000,270023.688369044,23330.6391283059,8922.6929532648,5641.9751115303,26056.4962565997
953,"N3",2856001,2859000,260521.231229186,28247.7966230936,10261.9271333734,5326.9198040495,26509.7818584681
954,"N3",2859001,2862000,189439.01582448,21858.8896362501,10883.206203858,3752.8583341178,17836.0718988028
955,"N3",2862001,2865000,251290.469713739,29775.7362275271,10605.1084464458,5473.623751758,21189.2166341542
956,"N3",2865001,2868000,311747.893204122,32049.0279988184,9715.1205442414,3539.8750754101,14520.5367300875
957,"N3",2868001,2871000,379315.396513033,35035.2415363765,8713.7068204287,3581.3293514422,8742.5682613822
958,"N3",2871001,2874000,271071.312560878,26248.8938663099,8127.4883816474,2217.826073813,6105.5958251226
959,"N3",2874001,2877000,338167.13076113,37602.1824988329,5876.5716695878,2963.048117632,8468.2751092168
960,"N3",2877001,2880000,371470.840235202,44901.3941358247,6011.5824536743,2536.0622772232,5457.3007710281
961,"N3",2880001,2883000,396952.389872906,37229.7865850513,6785.2094431251,2505.7382246299,5804.3311932051
962,"N3",2883001,2886000,268153.436330583,27350.4121813495,10812.2281920743,3238.9238151979,6871.08182936
963,"N3",2886001,2889000,370084.760310861,35966.3274242592,9370.3894137746,2688.5639915604,8027.6634729759
964,"N3",2889001,2892000,566891.020371463,45701.0395472485,6826.6729960005,2479.1077970855,6048.5219161749
965,"N3",2892001,2895000,412144.874569953,36543.5935976101,6642.1868375855,3954.9866157037,11514.0178726296
966,"N3",2895001,2898000,360639.047272619,33233.6720993217,10059.4262124936,3510.8564049809,8627.5065560837
967,"N3",2898001,2901000,324987.296241825,30478.8330829057,6109.2041214618,2771.0888789993,7955.5765942347
968,"N3",2901001,2904000,408495.043725871,34524.4676337689,5400.3457184891,3120.6933527412,9267.0755133766
969,"N3",2904001,2907000,345105.426821263,25144.3365317194,6178.9134760702,2667.129504912,5789.4845694644
970,"N3",2907001,2910000,340336.993985499,31670.5086133001,5871.5997870784,2490.6545146702,6007.3287068835
971,"N3",2910001,2913000,314050.007410021,28597.7979509982,6100.6474558748,2119.9973864779,5522.49023002
972,"N3",2913001,2916000,246471.614314267,42131.0370035401,6720.6982843556,2102.6300301427,4560.4405956261
973,"N3",2916001,2919000,212952.099369462,32099.5276206803,6691.3177370145,2512.6733830553,6164.5622648368
974,"N3",2919001,2922000,120634.800077929,22117.3740882875,4590.1558180851,2251.0013133842,6484.2097651234
975,"N3",2922001,2925000,188685.44204407,24736.7871724371,9462.465443105,2470.0576388364,6561.1559546229
976,"N3",2925001,2928000,286014.537475855,36308.8090313475,8489.3112135086,2766.3940869619,7695.1985791473
977,"N3",2928001,2931000,243948.113535901,25520.5796862159,5029.9488234677,2298.6238095299,6808.6377688757
978,"N3",2931001,2934000,177670.202325573,22596.3169821047,5157.9926976341,2484.7531734465,6798.8462815647
979,"N3",2934001,2937000,195058.443010004,28657.9905508036,5090.8426002902,2063.978660166,6475.159026474
980,"N3",2937001,2940000,230310.62415836,26445.4722489833,8223.5929912495,3780.7331979434,10961.8752482219
981,"N3",2940001,2943000,288815.708663647,27915.2210194017,9649.1052823959,5314.2702355765,15942.1528750439
982,"N3",2943001,2946000,301640.0781806,33565.1986552419,13646.6006138093,6679.5463890599,16626.4405085682
983,"N1",2946001,2949000,313841.209691279,38431.9526757308,13997.1821739539,5401.9632865649,15914.7877330572
984,"N3",2949001,2952000,330768.701137795,46021.7110212456,13459.2044468651,6182.8709740909,16648.268501945
985,"N3",2952001,2955000,470222.472336923,42574.2980645285,9924.0443235742,4575.1418294823,14698.0565420096
986,"N3",2955001,2958000,342625.685651612,46085.9991161309,12590.546868586,6910.3164058787,21667.8627906227
987,"N3",2958001,2961000,242683.343778268,34798.5929628282,8299.8309932358,3707.1473757661,9185.2776859223
988,"N3",2961001,2964000,306842.728442019,50795.7680559024,10594.9282787208,4533.2333887898,11637.1703455975
989,"N3",2964001,2967000,518776.493549781,40312.32192385,15110.4590118357,6207.2906167493,15755.2088105915
990,"N3",2967001,2970000,328665.938285684,26585.5430835988,12280.6820114019,4317.4464494447,10679.2847288906
991,"N3",2970001,2973000,277596.511714745,32883.15293352,10787.5354659929,5331.9048304761,14698.6767262969
992,"N1",2973001,2976000,301246.813864161,28600.3549475248,11142.0269455549,6327.9783717993,20672.0566347393
993,"N3",2976001,2979000,288792.629414893,27408.5064831913,10256.350935901,5687.1237181703,17266.5946355029
994,"N3",2979001,2982000,301275.581935201,31118.2393193045,10354.1213236288,5420.9030315307,15432.4983661666
995,"N3",2982001,2985000,351140.348140853,22938.7417799606,9739.1931316272,5761.6598988407,15449.0858349551
996,"N3",2985001,2988000,368189.649219989,37222.467628809,9028.755357804,5216.5920740679,15561.5466776232
997,"N1",2988001,2991000,316987.675014765,26962.895980195,8784.30340835,5219.3451264003,14644.990386731
998,"N1",2991001,2994000,259771.05554793,33220.4342219421,10293.6808929542,4305.2640244771,14039.2125373845
999,"N3",2994001,2997000,389484.246217944,50847.9125193336,12552.6712481352,6217.9259983094,21316.1032095802
1000,"N3",2997001,3e+06,422420.528239102,40417.2791382494,14087.21593594,9634.8294334615,31579.0230924535
1001,"N3",3000001,3003000,349233.49755165,22400.0871011834,8579.4613884431,4130.5368290205,13685.6237078417
1002,"N3",3003001,3006000,368066.077543353,41418.340817369,9230.2862223314,3855.9879145682,9448.0874210701
1003,"N3",3006001,3009000,321448.324705642,35789.0557547772,11733.5789872051,4133.3353687508,12097.2201488573
1004,"N3",3009001,3012000,191141.236177568,20756.3737128829,7881.3683402401,4392.8361715152,11006.5556923267
1005,"N1",3012001,3015000,338882.171833654,30782.8061756695,11210.0555007217,4256.7601369597,10674.8471213761
1006,"N3",3015001,3018000,357167.673763065,26058.0974653287,10326.5829333488,5545.9789490749,15790.9150850746
1007,"N3",3018001,3021000,301192.294703856,23631.4754300498,8136.6567132949,4378.7673993186,11842.2081991869
1008,"N3",3021001,3024000,451929.980526023,51616.9647639183,11111.9893707032,5052.5495048543,13677.9989776692
1009,"N3",3024001,3027000,991835.517124888,111853.406632887,16575.4340327123,5950.7689272519,15071.3256603588
1010,"N3",3027001,3030000,460749.800985574,39650.2048199715,10511.1032297981,5104.3236735503,14980.1906605943
1011,"N1",3030001,3033000,1285566.20710203,28065.7206441324,20795.7912051841,4965.7511575544,15225.6760986043
1012,"N1",3033001,3036000,164651.91780384,18069.1475511883,42105.9806963348,2908.1951006634,7303.093749378
1013,"N3",3036001,3039000,106785.548910969,35466.5370570385,33826.0943812104,2652.6669199057,4673.497837109
1014,"N1",3039001,3042000,56189.9324765556,52274.434843069,32469.1788154344,3334.417967684,5488.9936149615
1015,"REM",3042001,3045000,44863.2191192966,58770.5779762588,30628.5248761612,3096.5696241547,4139.2171961561
1016,"REM",3045001,3048000,69688.6662352538,75530.790064734,33462.0667562718,3932.3514233034,5399.5107568982
1017,"REM",3048001,3051000,47376.7008000036,99031.1089757506,32581.2340416133,3124.8950762176,4322.2217521031
1018,"REM",3051001,3054000,49679.6713111539,115537.743546118,27858.5195156951,3796.8433624519,3472.0941119721
1019,"REM",3054001,3057000,40628.6180146817,76995.3785412553,31788.0723233108,2686.5726531669,3472.7465656837
1020,"REM",3057001,3060000,42290.7206425319,82044.7522614341,30767.7370292228,3599.3677321237,3710.6435593052
1021,"REM",3060001,3063000,33559.9758082731,49156.825562674,20583.4013446534,2521.8394270117,3293.348365235
1022,"N1",3063001,3066000,39780.8424074848,24227.7216668305,20897.7306338739,2476.3874195431,2640.6268753851
1023,"N3",3066001,3069000,49015.1974609892,25594.7470966675,6143.4596206919,2439.589657924,2659.5832953105
1024,"N3",3069001,3072000,62674.158172278,22506.3859155629,4460.5958596434,1450.6931977541,2105.6116385865
1025,"N3",3072001,3075000,181515.095906079,39556.2953625644,6136.9340471482,1828.5489721932,2817.9509828467
1026,"N3",3075001,3078000,200248.924012112,37032.7956422106,5073.4790856383,1961.4026464718,2260.6996882985
1027,"N3",3078001,3081000,208349.999339977,51982.5501802718,4824.654123168,2253.9560785801,2235.0533294082
1028,"N3",3081001,3084000,259039.705262426,48805.8254816872,5910.7218129858,4437.6505147694,2412.8650595747
1029,"N3",3084001,3087000,219451.776113089,48744.2606360117,7281.5651509599,4751.3729053696,2590.4838219652
1030,"N3",3087001,3090000,191234.504347293,33394.4471709496,7056.8702747853,4698.6546229379,3013.5957429035
1031,"N3",3090001,3093000,158827.404371869,26206.9518901438,5566.6608031157,3127.5902448408,2371.5432938624
1032,"N3",3093001,3096000,303971.282679517,44789.2213378601,11453.7543865375,9134.1775078322,2707.1979837606
1033,"N3",3096001,3099000,246938.469764274,36206.9068989691,7810.7178259052,3128.8581033441,2104.9631562662
1034,"N3",3099001,3102000,222939.309526695,47694.535836726,16214.6143608983,13156.2269637169,2611.2736304259
1035,"N3",3102001,3105000,300299.12796567,52090.0027881046,10651.827311501,8106.873853087,2285.905868147
1036,"N3",3105001,3108000,277316.179805718,47585.0892090861,12961.7110147497,6296.1427196381,1777.6441240387
1037,"N3",3108001,3111000,317087.618286994,50695.3233321364,13846.8258080818,7292.8685423932,2177.1210135157
1038,"N3",3111001,3114000,280433.555297672,40613.1798678484,11458.8225142869,6714.3827163159,2027.3138730353
1039,"N3",3114001,3117000,429236.234804378,67945.5622629479,17294.5908018436,9059.76897918,1952.3520034663
1040,"N3",3117001,3120000,295945.032563832,50439.4807889266,11263.3303939199,5222.2786500082,1576.1759818429
1041,"N3",3120001,3123000,462501.350136536,62883.1081396097,19682.2829687145,8268.3427856005,1645.6725986407
1042,"N3",3123001,3126000,593710.121637076,67901.7247541225,13753.3118892231,6121.8009978028,1637.5286767621
1043,"N3",3126001,3129000,443941.895579506,48464.5379269332,11829.3507300167,4363.8651697028,1434.1673584522
1044,"N3",3129001,3132000,605282.282131731,55541.3152126613,14551.8694056089,5390.3582851188,1688.7623120884
1045,"N3",3132001,3135000,526017.877019258,60900.6385377932,13605.5004847612,6952.1940682283,1732.1549407497
1046,"N3",3135001,3138000,727813.551870564,52488.2269466637,11902.6454882954,5949.6189034773,1443.8120965105
1047,"N3",3138001,3141000,569435.188509094,45300.2068688858,11884.7208434871,5055.180369861,1526.6954398472
1048,"N3",3141001,3144000,571469.898461244,61332.7647002941,14791.0456841261,5795.7287800207,1576.3476628943
1049,"N3",3144001,3147000,793852.45985531,67340.7591643,16090.7776460531,6836.8826363529,1619.5569228364
1050,"N3",3147001,3150000,827477.296393221,56174.644243532,14019.0117417454,4038.6660733442,1745.3849521311
1051,"N3",3150001,3153000,756018.188319734,58760.510439556,13657.6275558943,3600.4106781313,1574.9475787164
1052,"N3",3153001,3156000,703915.786061666,54287.1515536312,11240.6745420691,4725.3378443285,1284.7332365877
1053,"N3",3156001,3159000,855366.284186181,55664.4612702628,12347.9455155528,4567.5772102721,1405.5118078483
1054,"N3",3159001,3162000,712302.149690928,58847.7657663955,13234.6051040907,4558.5644486192,1393.4883859411
1055,"N3",3162001,3165000,1055605.99543416,60067.8652393172,13428.7427859495,4366.7199856477,1563.7087057793
1056,"N3",3165001,3168000,634885.457819005,56007.5847240178,10921.4025395644,3934.0184168491,1925.6342279917
1057,"N3",3168001,3171000,1184761.94250793,55950.1438185387,11397.235338752,3690.6055490246,1348.0188405608
1058,"N3",3171001,3174000,831654.09812929,59772.4122963762,9619.0197579983,4359.2258786984,1749.9948019678
1059,"N3",3174001,3177000,995478.246524003,63856.3221919732,12695.4565045307,4008.5448366607,1397.9481432167
1060,"N3",3177001,3180000,1071420.00542977,57252.8090508906,16726.3777113048,5601.6573675158,2007.4978091582
1061,"N3",3180001,3183000,445725.064594125,78360.5825883959,17562.5284654463,6557.2331778702,14620.2036812623
1062,"N3",3183001,3186000,448725.932049764,44099.3238976826,7925.8979352884,2582.5422460363,2378.2050844326
1063,"N3",3186001,3189000,441749.536903803,48572.3669537171,9909.3971480086,4170.2515487126,2107.973485587
1064,"N3",3189001,3192000,350367.865981871,41078.6706929868,11445.0072906721,5870.3956926411,1759.319645128
1065,"N3",3192001,3195000,354826.364167318,43105.3823979789,9207.065267349,4445.4689958262,1600.9632496626
1066,"N3",3195001,3198000,454008.133588461,42119.4574996248,8550.643039407,3717.4943160158,1426.7194848834
1067,"N3",3198001,3201000,501656.432525801,52142.6354168661,15222.4615642198,6454.4462270026,1759.6240310049
1068,"N3",3201001,3204000,644320.065518071,48486.3130954962,10577.0597439684,3666.494056558,1693.5104895938
1069,"N3",3204001,3207000,612911.992437934,49512.5461772258,11168.8778094405,6507.7666606045,1512.5711512165
1070,"N3",3207001,3210000,578917.089364304,51028.6736091381,10570.0338500707,3922.0018940654,1673.3035186958
1071,"N3",3210001,3213000,703453.17648336,56210.2837934106,11861.4501040984,5220.5345197526,1472.0080359532
1072,"N3",3213001,3216000,805827.086029127,64161.7609072341,14992.3651440184,4924.6780447833,1542.6506475997
1073,"N3",3216001,3219000,726934.763584472,58732.0219364648,9990.4701766742,3537.1561695569,1348.4433173252
1074,"N3",3219001,3222000,684584.13748116,53177.5784469668,9433.8358093046,5329.3779852461,1425.3681771055
1075,"N3",3222001,3225000,1060395.87470085,51472.6452671948,11437.9612387458,4507.7646791151,1695.163227601
1076,"N3",3225001,3228000,408092.782527901,64763.1691339568,11208.7670783002,3451.8852118815,5132.6468270214
1077,"N3",3228001,3231000,538623.334139278,42066.5151449604,6382.1998887629,2411.8774119395,1832.4363219597
1078,"N3",3231001,3234000,338272.114262988,49942.5101074023,12253.9887366398,5117.5824211125,2559.4340965482
1079,"N3",3234001,3237000,361722.667118278,44014.2723571134,8567.8316057487,6553.830754084,1768.3542964154
1080,"N3",3237001,3240000,329065.773136495,80582.9002494572,12530.434356557,3548.6635098496,2545.524716445
1081,"N3",3240001,3243000,267942.919121559,34259.6362351905,6028.1166586517,1812.1801698439,2229.9829879289
1082,"N3",3243001,3246000,190894.145378615,39348.3817736135,8345.3115075824,5577.4298151316,2146.1174212002
1083,"N3",3246001,3249000,492820.807287675,50087.5123057498,10864.7541619757,7768.1050180987,2221.9654834302
1084,"N3",3249001,3252000,375832.370271929,50398.7865012144,13320.6764901372,9863.7102590491,1737.3917358697
1085,"N3",3252001,3255000,299603.416900886,32359.6132055614,10532.2492205786,6509.0752453216,1506.4787627435
1086,"N3",3255001,3258000,437500.260967088,40793.5981621119,10795.4262036493,6130.6889746385,1485.3016621566
1087,"N3",3258001,3261000,414809.914864761,38785.3774632088,10280.5468041927,6290.8994923467,1426.6598151122
1088,"N3",3261001,3264000,525582.494731143,53569.2217771913,15115.118601078,4417.5139224584,2475.478934116
1089,"N3",3264001,3267000,401888.179217738,47753.2927020228,9484.1989723687,2519.8896344058,2087.9711041259
1090,"N1",3267001,3270000,184440.440625069,46186.4971263973,18540.3822452299,6250.7280402173,13754.0550469415
1091,"N3",3270001,3273000,148689.468625369,21799.5062559074,4395.8554618417,2071.447834294,2495.6635627943
1092,"N3",3273001,3276000,191649.316205346,20490.8072941902,5367.9769743103,2774.3657223492,1607.3647435398
1093,"N3",3276001,3279000,365288.154713372,44308.2611437732,12539.1000310286,7680.0584863802,1990.9983800202
1094,"N3",3279001,3282000,288510.4924503,30794.4127047744,8585.8932020182,4877.7172335286,1453.4467641575
1095,"N3",3282001,3285000,338782.49348047,34070.6189684654,10256.8424727544,4992.213398866,1461.2382887284
1096,"N3",3285001,3288000,338694.165404838,31179.9532237254,8768.5238013182,4555.754408698,1467.3767209925
1097,"N3",3288001,3291000,508774.187279063,48026.6727066657,16709.4494522844,5502.3903182237,1896.2339477139
1098,"N3",3291001,3294000,335344.118777126,37337.4364687457,8824.2773587614,5738.2749368382,1537.3484885973
1099,"N3",3294001,3297000,464495.195338344,32912.4914644651,13082.3452312582,8805.3135007877,1486.2856505805
1100,"N3",3297001,3300000,421925.985643339,50436.7292989516,14908.7882893034,6281.3985596801,1415.5324111457
1101,"N3",3300001,3303000,726493.679382171,47871.4469761777,11878.9054565842,5272.5517063994,1858.1138003709
1102,"N3",3303001,3306000,558239.758724128,44374.7633549274,9996.2098545814,5039.3567542577,1631.1624801451
1103,"N3",3306001,3309000,549161.786053061,51880.2956396458,11271.6463677867,4919.8252376832,1461.7988169872
1104,"N3",3309001,3312000,535887.553043157,52237.0429332161,11711.5007998503,4781.984651923,1287.0301211909
1105,"N3",3312001,3315000,596650.592580448,47825.4369069743,13207.1587004755,5193.8887143479,1293.6191934529
1106,"N3",3315001,3318000,841905.317537853,43183.7865444091,11267.2444072357,3883.7081807967,1227.0459679681
1107,"N3",3318001,3321000,900006.118628923,50984.9046635476,10615.107201599,3240.7590955589,1171.7789840362
1108,"N3",3321001,3324000,1205043.78392762,51759.3240001117,11672.563158676,3208.1091681351,1118.468107692
1109,"N3",3324001,3327000,1003247.35571551,65168.9312846303,11135.9037336397,3837.5462553941,1118.6564525265
1110,"N3",3327001,3330000,829726.228511982,60354.7887445745,13049.8416807696,2661.4114939208,1784.2022523574
1111,"N3",3330001,3333000,530187.492341911,34690.5285911525,6652.5378293787,2373.4269617924,1453.2486232511
1112,"N3",3333001,3336000,401810.336871492,34687.5404855478,5811.9858309897,2733.6931304686,1469.6000163508
1113,"N3",3336001,3339000,444072.564669514,37906.7193126291,11865.3520055932,7025.9151544937,1512.2338697049
1114,"N3",3339001,3342000,561617.031323501,39506.4049258615,10177.4661049798,5732.5350741443,1502.7863245015
1115,"N3",3342001,3345000,428018.899750299,44607.1856853755,13660.7598278423,7623.4067543435,1285.2720653725
1116,"N3",3345001,3348000,637219.574173064,43749.7326522629,12818.9559452532,5996.2318224658,1307.3252006869
1117,"N3",3348001,3351000,714279.027168293,49078.4768943032,13574.8968259679,5413.4130926219,1105.2736843649
1118,"N3",3351001,3354000,956158.648027755,48100.1901208747,11376.0615014898,4291.6235159809,1165.1488648896
1119,"N3",3354001,3357000,1020769.56268042,59617.8288238208,12456.1545914807,3904.2637333789,1089.008632407
1120,"N3",3357001,3360000,973052.99761259,52098.5274484048,11360.2428002377,4394.8177666487,1429.7481932495
