epoch,start_sec,expert_stage,pred_stage,rel_delta,rel_theta,rel_alpha,rel_sigma,rel_beta
1,0.0,W,N3,0.907749,0.068671,0.012323,0.003885,0.007373
2,30.0,W,N3,0.936527,0.045734,0.009208,0.00292,0.005612
3,60.0,W,N3,0.913499,0.056193,0.013232,0.005641,0.011435
4,90.0,W,N3,0.884326,0.018534,0.083345,0.003013,0.010781
5,120.0,W,W,0.322285,0.106156,0.484465,0.015703,0.07139
6,150.0,W,N3,0.889758,0.077066,0.025179,0.002728,0.00527
7,180.0,W,N3,0.911242,0.0604,0.014182,0.00432,0.009856
8,210.0,W,N3,0.951988,0.034145,0.007245,0.002336,0.004286
9,240.0,W,N3,0.939647,0.046742,0.009041,0.00205,0.002519
10,270.0,W,N3,0.894515,0.084279,0.012051,0.003679,0.005477
11,300.0,W,N3,0.908111,0.055544,0.015172,0.00651,0.014663
12,330.0,W,N3,0.900783,0.045317,0.022764,0.009578,0.021559
13,360.0,W,N3,0.919854,0.04386,0.015418,0.006253,0.014614
14,390.0,W,N3,0.882765,0.064876,0.021394,0.009151,0.021815
15,420.0,W,N3,0.877765,0.053286,0.023219,0.013572,0.032157
16,450.0,W,N3,0.873225,0.063446,0.024447,0.010391,0.028491
17,480.0,W,N3,0.843588,0.07177,0.033244,0.016227,0.035171
18,510.0,W,N3,0.751998,0.090352,0.052138,0.024603,0.080909
19,540.0,W,N1,0.837884,0.062155,0.036744,0.019861,0.043356
20,570.0,W,N3,0.829308,0.069359,0.032935,0.018098,0.0503
21,600.0,W,N3,0.830679,0.06863,0.034998,0.018726,0.046968
22,630.0,W,N3,0.846074,0.077148,0.027209,0.014259,0.035311
23,660.0,W,N3,0.859726,0.061921,0.027834,0.013701,0.036818
24,690.0,W,N3,0.89574,0.057407,0.019502,0.00911,0.01824
25,720.0,W,N3,0.923156,0.039961,0.014614,0.007624,0.014645
26,750.0,W,N1,0.797004,0.098557,0.038902,0.020453,0.045084
27,780.0,W,N3,0.807302,0.084432,0.04043,0.018319,0.049517
28,810.0,W,N3,0.8361,0.075129,0.030732,0.014701,0.043338
29,840.0,W,N1,0.797075,0.089154,0.040721,0.018483,0.054566
30,870.0,W,N3,0.850383,0.079388,0.024875,0.013241,0.032113
31,900.0,W,N1,0.803079,0.067171,0.031238,0.032446,0.066066
32,930.0,W,N1,0.775326,0.087332,0.03283,0.025373,0.079138
33,960.0,W,N3,0.888568,0.051209,0.019951,0.011441,0.028831
34,990.0,W,N3,0.866478,0.058521,0.021977,0.018133,0.03489
35,1020.0,W,N3,0.860654,0.050568,0.030211,0.02051,0.038057
36,1050.0,W,N3,0.869642,0.052114,0.024113,0.015856,0.038274
37,1080.0,W,N3,0.864602,0.072257,0.024077,0.010821,0.028243
38,1110.0,W,N3,0.872171,0.062844,0.021123,0.010629,0.033234
39,1140.0,W,N3,0.8788,0.07726,0.016443,0.008848,0.01865
40,1170.0,W,N3,0.906313,0.053581,0.014426,0.006869,0.018811
41,1200.0,W,N3,0.881222,0.063146,0.020831,0.01048,0.024322
42,1230.0,W,N3,0.854974,0.080505,0.023758,0.011761,0.029002
43,1260.0,W,N3,0.887456,0.081303,0.014606,0.005506,0.011128
44,1290.0,W,N3,0.902204,0.060353,0.016376,0.007265,0.013802
45,1320.0,W,N3,0.908803,0.043166,0.015004,0.010753,0.022274
46,1350.0,W,N3,0.911205,0.050993,0.014416,0.006975,0.016411
47,1380.0,W,N3,0.894048,0.055559,0.017241,0.007844,0.025308
48,1410.0,W,N3,0.835395,0.083347,0.02406,0.016125,0.041073
49,1440.0,W,N3,0.891531,0.064946,0.018182,0.007717,0.017624
50,1470.0,W,N3,0.873886,0.067637,0.019521,0.010686,0.02827
51,1500.0,W,N3,0.856522,0.063072,0.023095,0.013876,0.043434
52,1530.0,W,N3,0.773942,0.082337,0.038783,0.026911,0.078027
53,1560.0,W,N3,0.85428,0.071619,0.025229,0.013659,0.035214
54,1590.0,W,N3,0.813587,0.091327,0.031748,0.019307,0.044032
55,1620.0,W,N3,0.823359,0.072309,0.030284,0.023826,0.050221
56,1650.0,W,N3,0.864433,0.066011,0.02401,0.013742,0.031803
57,1680.0,W,N3,0.857953,0.082594,0.028795,0.009994,0.020664
58,1710.0,W,N3,0.775868,0.120943,0.041584,0.019161,0.042443
59,1740.0,W,N3,0.785668,0.122078,0.040545,0.01629,0.035418
60,1770.0,W,N3,0.85362,0.087849,0.028607,0.010435,0.019488
61,1800.0,W,N3,0.801407,0.114788,0.037076,0.015343,0.031385
62,1830.0,W,N3,0.848833,0.094541,0.026758,0.011595,0.018272
63,1860.0,W,N3,0.896644,0.057584,0.018297,0.007661,0.019814
64,1890.0,W,N3,0.811849,0.117961,0.037601,0.011576,0.021013
65,1920.0,W,N3,0.890927,0.064455,0.021905,0.007659,0.015054
66,1950.0,W,N3,0.820843,0.092911,0.043296,0.014687,0.028264
67,1980.0,W,N3,0.847134,0.089316,0.03587,0.010951,0.016729
68,2010.0,W,N3,0.837352,0.109509,0.029875,0.009549,0.013715
69,2040.0,W,N3,0.874432,0.082406,0.023381,0.007989,0.011792
70,2070.0,W,N3,0.871598,0.073354,0.028418,0.010304,0.016326
71,2100.0,W,N3,0.757146,0.13759,0.050964,0.017574,0.036726
72,2130.0,W,N3,0.832033,0.107216,0.03476,0.013329,0.012661
73,2160.0,W,N3,0.70468,0.184327,0.081131,0.01357,0.016291
74,2190.0,W,N3,0.759018,0.158591,0.046796,0.01312,0.022475
75,2220.0,W,N3,0.880826,0.088326,0.018678,0.005414,0.006755
76,2250.0,W,N3,0.886002,0.084735,0.015213,0.005755,0.008295
77,2280.0,W,N3,0.86105,0.106487,0.018101,0.006563,0.0078
78,2310.0,W,N3,0.861174,0.109056,0.017025,0.005357,0.007388
79,2340.0,W,N3,0.894857,0.083533,0.012742,0.004311,0.004557
80,2370.0,W,N3,0.901168,0.08002,0.011133,0.003353,0.004327
81,2400.0,W,N3,0.884639,0.094292,0.013648,0.003707,0.003714
82,2430.0,W,N3,0.908573,0.071463,0.011838,0.003808,0.004317
83,2460.0,W,N3,0.864529,0.115077,0.011043,0.003699,0.005653
84,2490.0,W,N3,0.859643,0.109455,0.016413,0.005556,0.008934
85,2520.0,W,N3,0.878615,0.092173,0.015495,0.004671,0.009047
86,2550.0,W,N3,0.871009,0.09578,0.014813,0.005361,0.013037
87,2580.0,W,N3,0.881253,0.09473,0.015112,0.004943,0.003962
88,2610.0,W,N3,0.892044,0.085711,0.013401,0.004237,0.004607
89,2640.0,W,N3,0.887351,0.087973,0.011909,0.005219,0.007548
90,2670.0,W,N3,0.882368,0.09221,0.015027,0.004893,0.005501
91,2700.0,W,N3,0.876544,0.100346,0.013744,0.004486,0.00488
92,2730.0,W,N3,0.844991,0.120519,0.017449,0.006337,0.010704
93,2760.0,W,N3,0.871079,0.105685,0.012821,0.004351,0.006063
94,2790.0,W,N3,0.868803,0.099613,0.014496,0.00584,0.011248
95,2820.0,W,N3,0.885261,0.089009,0.013238,0.005469,0.007024
96,2850.0,W,N3,0.875221,0.098748,0.013979,0.005373,0.006678
97,2880.0,W,N3,0.901314,0.079647,0.011272,0.004005,0.003763
98,2910.0,W,N3,0.884206,0.09456,0.013053,0.004054,0.004128
99,2940.0,W,N3,0.889267,0.089188,0.012925,0.004445,0.004175
100,2970.0,W,N3,0.865746,0.111605,0.01341,0.004499,0.00474
101,3000.0,W,N3,0.871147,0.101366,0.017063,0.005096,0.005329
102,3030.0,W,N3,0.863202,0.114202,0.013741,0.004079,0.004776
103,3060.0,W,N3,0.84474,0.114399,0.017574,0.007456,0.015831
104,3090.0,W,N3,0.858893,0.086418,0.021042,0.011349,0.022298
105,3120.0,W,N3,0.870923,0.074888,0.019205,0.011072,0.023912
106,3150.0,W,N3,0.856487,0.097407,0.015827,0.009184,0.021095
107,3180.0,W,N3,0.828809,0.076705,0.029524,0.018467,0.046496
108,3210.0,W,N3,0.902201,0.040973,0.018557,0.011367,0.026903
109,3240.0,W,N3,0.879017,0.067433,0.019529,0.007946,0.026075
110,3270.0,W,N3,0.838164,0.086705,0.023824,0.013408,0.037899
111,3300.0,W,N3,0.880057,0.064596,0.018865,0.009712,0.026771
112,3330.0,W,N3,0.914166,0.040875,0.016953,0.008814,0.019193
113,3360.0,W,N3,0.899896,0.039201,0.019112,0.013134,0.028657
114,3390.0,W,N3,0.912112,0.044917,0.013677,0.008398,0.020897
115,3420.0,W,N3,0.819506,0.091282,0.031655,0.015853,0.041704
116,3450.0,W,N3,0.880975,0.051098,0.019742,0.0127,0.035484
117,3480.0,W,N3,0.813052,0.083218,0.029606,0.020533,0.053592
118,3510.0,W,N3,0.861781,0.07853,0.018009,0.01069,0.03099
119,3540.0,W,N3,0.838918,0.083084,0.027517,0.014508,0.035973
120,3570.0,W,N3,0.853196,0.075124,0.022631,0.014705,0.034343
121,3600.0,W,N3,0.88401,0.058009,0.017712,0.011062,0.029208
122,3630.0,W,N3,0.868919,0.057849,0.02202,0.013674,0.037538
123,3660.0,W,N3,0.879265,0.056746,0.020815,0.011607,0.031567
124,3690.0,W,N3,0.87414,0.050702,0.022134,0.014653,0.03837
125,3720.0,W,N3,0.867337,0.057694,0.023574,0.015004,0.036392
126,3750.0,W,N3,0.861955,0.064646,0.02536,0.013436,0.034603
127,3780.0,W,N3,0.839186,0.074145,0.028678,0.014644,0.043348
128,3810.0,W,N3,0.846482,0.078298,0.024089,0.014479,0.036653
129,3840.0,W,N3,0.871835,0.057851,0.024952,0.013719,0.031643
130,3870.0,W,N3,0.915363,0.032642,0.014921,0.010001,0.027072
131,3900.0,W,N3,0.894251,0.043567,0.020206,0.011977,0.029999
132,3930.0,W,N3,0.796222,0.077949,0.037275,0.0267,0.061854
133,3960.0,W,N3,0.857261,0.07106,0.024074,0.013776,0.033828
134,3990.0,W,N3,0.820962,0.086738,0.034245,0.01592,0.042136
135,4020.0,W,N3,0.882454,0.062389,0.01788,0.009957,0.027321
136,4050.0,W,N3,0.856805,0.064312,0.024108,0.015622,0.039153
137,4080.0,W,N3,0.866827,0.069429,0.020227,0.010846,0.03267
138,4110.0,W,N3,0.870708,0.065974,0.020218,0.012458,0.030642
139,4140.0,W,N3,0.877416,0.074584,0.01645,0.007725,0.023825
140,4170.0,W,N3,0.889719,0.07117,0.014371,0.007476,0.017265
141,4200.0,W,N3,0.890254,0.064158,0.018354,0.008074,0.019161
142,4230.0,W,N3,0.846149,0.079312,0.025243,0.012601,0.036697
143,4260.0,W,N3,0.898494,0.052129,0.017037,0.008279,0.024062
144,4290.0,W,N3,0.881206,0.065228,0.020116,0.008241,0.02521
145,4320.0,W,N3,0.863162,0.073916,0.01861,0.010721,0.033591
146,4350.0,W,N3,0.866943,0.071388,0.021096,0.010808,0.029766
147,4380.0,W,N3,0.883628,0.061638,0.016499,0.011974,0.026261
148,4410.0,W,N3,0.90088,0.056324,0.014461,0.008701,0.019634
149,4440.0,W,N3,0.86159,0.072063,0.021746,0.014365,0.030237
150,4470.0,W,N3,0.876427,0.073831,0.020923,0.008631,0.020188
151,4500.0,W,N1,0.850595,0.06983,0.027158,0.01501,0.037406
152,4530.0,W,N3,0.837312,0.074734,0.033559,0.017106,0.037289
153,4560.0,W,N3,0.825802,0.091439,0.029797,0.017575,0.035386
154,4590.0,W,N3,0.868489,0.057362,0.027279,0.014921,0.031949
155,4620.0,W,N3,0.894502,0.059744,0.016968,0.009136,0.019651
156,4650.0,W,N3,0.843082,0.071929,0.030023,0.019365,0.0356
157,4680.0,W,N3,0.825244,0.062843,0.038148,0.024315,0.049451
158,4710.0,W,N3,0.804866,0.077298,0.041034,0.022856,0.053945
159,4740.0,W,N3,0.883729,0.057611,0.021975,0.012757,0.023929
160,4770.0,W,N3,0.850094,0.069404,0.027118,0.015802,0.037582
161,4800.0,W,N3,0.765475,0.083718,0.040656,0.034445,0.075706
162,4830.0,W,N1,0.813622,0.067699,0.038958,0.025856,0.053865
163,4860.0,W,N1,0.837771,0.069935,0.03647,0.022075,0.033749
164,4890.0,W,N3,0.854216,0.064746,0.028092,0.016124,0.036823
165,4920.0,W,N3,0.8498,0.078455,0.027619,0.012665,0.031461
166,4950.0,W,N3,0.844539,0.074037,0.026451,0.017823,0.037149
167,4980.0,W,N3,0.80397,0.07864,0.040069,0.025781,0.051541
168,5010.0,W,N3,0.843889,0.062896,0.029624,0.020387,0.043203
169,5040.0,W,N3,0.877454,0.048959,0.02431,0.015621,0.033655
170,5070.0,W,N3,0.808521,0.076206,0.037941,0.024246,0.053087
171,5100.0,W,N3,0.871907,0.056666,0.025855,0.016478,0.029094
172,5130.0,W,N3,0.855717,0.065484,0.030111,0.017618,0.031071
173,5160.0,W,N3,0.831699,0.063095,0.034364,0.020856,0.049986
174,5190.0,W,N3,0.830845,0.08104,0.035555,0.016913,0.035646
175,5220.0,W,N3,0.820553,0.078217,0.037212,0.018716,0.045301
176,5250.0,W,N3,0.829413,0.066847,0.038364,0.020301,0.045075
177,5280.0,W,N1,0.794326,0.076892,0.048729,0.023381,0.056672
178,5310.0,W,N3,0.883898,0.044219,0.028218,0.012297,0.031368
179,5340.0,W,N3,0.770163,0.074548,0.046419,0.031582,0.077288
180,5370.0,W,N3,0.848768,0.050617,0.030872,0.020558,0.049185
181,5400.0,W,N3,0.771787,0.086466,0.049285,0.027185,0.065278
182,5430.0,W,N3,0.801234,0.064062,0.050074,0.02643,0.0582
183,5460.0,W,N3,0.868379,0.04251,0.02799,0.022827,0.038295
184,5490.0,W,N3,0.871493,0.049744,0.026913,0.014146,0.037705
185,5520.0,W,N3,0.847508,0.062726,0.032281,0.015913,0.041572
186,5550.0,W,N3,0.794531,0.083,0.041812,0.022408,0.058249
187,5580.0,W,N1,0.724051,0.088725,0.063018,0.033018,0.091189
188,5610.0,W,N1,0.68691,0.089826,0.072754,0.045603,0.104908
189,5640.0,W,N3,0.878557,0.048425,0.029882,0.01347,0.029666
190,5670.0,W,N3,0.863676,0.055139,0.026059,0.016461,0.038664
191,5700.0,W,N3,0.857718,0.05536,0.03147,0.014566,0.040886
192,5730.0,W,N3,0.863198,0.056578,0.024775,0.017665,0.037784
193,5760.0,W,N3,0.79666,0.072796,0.049138,0.024321,0.057085
194,5790.0,W,N3,0.852664,0.068153,0.031373,0.014529,0.033281
195,5820.0,W,N3,0.802364,0.076052,0.045904,0.020343,0.055337
196,5850.0,W,N3,0.779827,0.066985,0.053371,0.02957,0.070247
197,5880.0,W,N3,0.743207,0.081933,0.062231,0.034889,0.07774
198,5910.0,W,N3,0.755092,0.093047,0.051189,0.028588,0.072085
199,5940.0,W,N1,0.715881,0.084784,0.072159,0.037532,0.089645
200,5970.0,W,N1,0.778435,0.074758,0.04729,0.027532,0.071984
201,6000.0,W,N3,0.885247,0.052875,0.021898,0.013464,0.026515
202,6030.0,W,N3,0.886299,0.049421,0.021063,0.013469,0.029748
203,6060.0,W,N3,0.880899,0.056785,0.024527,0.011445,0.026345
204,6090.0,W,N3,0.841681,0.07308,0.035518,0.016315,0.033406
205,6120.0,W,N3,0.836391,0.064817,0.031924,0.02171,0.045157
206,6150.0,W,N3,0.834584,0.071705,0.033101,0.018094,0.042517
207,6180.0,W,N3,0.856046,0.07641,0.024653,0.010603,0.032288
208,6210.0,W,N3,0.880039,0.073796,0.01856,0.008453,0.019152
209,6240.0,W,N3,0.806237,0.06989,0.036685,0.026107,0.06108
210,6270.0,W,N3,0.835794,0.070796,0.030922,0.015827,0.046661
211,6300.0,W,N3,0.80384,0.094093,0.038377,0.015938,0.047752
212,6330.0,W,N3,0.807901,0.095498,0.043082,0.014896,0.038623
213,6360.0,W,N3,0.855938,0.071974,0.027666,0.014382,0.030041
214,6390.0,W,N3,0.871371,0.068819,0.021836,0.011387,0.026588
215,6420.0,W,N3,0.724606,0.139214,0.055407,0.021612,0.05916
216,6450.0,W,N3,0.861409,0.073149,0.024804,0.012236,0.028403
217,6480.0,W,N3,0.803586,0.101585,0.040727,0.02006,0.034042
218,6510.0,W,N3,0.812847,0.088234,0.037641,0.018085,0.043192
219,6540.0,W,N3,0.83674,0.06038,0.034644,0.021019,0.047218
220,6570.0,W,N3,0.844556,0.066909,0.02984,0.015829,0.042865
221,6600.0,W,N1,0.743644,0.070715,0.059359,0.042899,0.083383
222,6630.0,W,N1,0.794349,0.08487,0.04068,0.024456,0.055645
223,6660.0,W,N3,0.830455,0.056244,0.036253,0.020628,0.05642
224,6690.0,W,N3,0.822477,0.075351,0.03371,0.018153,0.050309
225,6720.0,W,N3,0.865442,0.065207,0.021404,0.013331,0.034617
226,6750.0,W,N3,0.811646,0.07733,0.033245,0.021459,0.05632
227,6780.0,W,N3,0.863147,0.072008,0.024404,0.011382,0.029059
228,6810.0,W,N3,0.856593,0.072134,0.024146,0.013349,0.033779
229,6840.0,W,N3,0.86577,0.049488,0.030107,0.01725,0.037385
230,6870.0,W,N3,0.859007,0.055833,0.028962,0.017875,0.038322
231,6900.0,W,N3,0.791643,0.086796,0.041814,0.022872,0.056876
232,6930.0,W,N3,0.86586,0.053971,0.026221,0.01477,0.039178
233,6960.0,W,N3,0.873982,0.055363,0.020836,0.013603,0.036215
234,6990.0,W,N3,0.878777,0.061145,0.025189,0.011604,0.023285
235,7020.0,W,N3,0.88919,0.054029,0.01753,0.012951,0.0263
236,7050.0,W,N3,0.882487,0.064203,0.016728,0.009699,0.026884
237,7080.0,W,N3,0.893281,0.051085,0.01822,0.009305,0.02811
238,7110.0,W,N3,0.884047,0.046949,0.021464,0.011344,0.036196
239,7140.0,W,N3,0.833896,0.071345,0.031069,0.018583,0.045107
240,7170.0,W,N3,0.904465,0.050217,0.016942,0.010034,0.018342
241,7200.0,W,N3,0.914682,0.059753,0.01184,0.004756,0.00897
242,7230.0,W,N3,0.887048,0.060376,0.017116,0.008557,0.026904
243,7260.0,W,N3,0.866251,0.057986,0.02532,0.01344,0.037003
244,7290.0,W,N1,0.916518,0.044714,0.015068,0.00618,0.017519
245,7320.0,W,N3,0.939929,0.030049,0.011355,0.005436,0.013231
246,7350.0,W,N3,0.904244,0.04805,0.015816,0.008239,0.023652
247,7380.0,W,N3,0.817994,0.077476,0.034821,0.01736,0.052349
248,7410.0,W,N3,0.837949,0.055629,0.03207,0.0188,0.055553
249,7440.0,W,N3,0.847123,0.040902,0.02719,0.023485,0.0613
250,7470.0,W,N3,0.904969,0.044342,0.017126,0.008746,0.024816
251,7500.0,W,N3,0.833023,0.070201,0.031494,0.017409,0.047873
252,7530.0,W,N3,0.796043,0.076013,0.039483,0.023022,0.065439
253,7560.0,W,N3,0.815185,0.075473,0.033932,0.018625,0.056785
254,7590.0,W,N1,0.863578,0.055393,0.022772,0.017663,0.040595
255,7620.0,W,N3,0.884003,0.042953,0.024685,0.012232,0.036126
256,7650.0,W,N3,0.856303,0.057386,0.027246,0.015397,0.043669
257,7680.0,W,N3,0.864343,0.06679,0.025299,0.012778,0.030789
258,7710.0,W,N3,0.851056,0.067426,0.026486,0.016862,0.03817
259,7740.0,W,N3,0.894704,0.053392,0.01903,0.009189,0.023684
260,7770.0,W,N3,0.86046,0.065327,0.026121,0.012,0.036092
261,7800.0,W,N3,0.813286,0.076807,0.034127,0.022935,0.052845
262,7830.0,W,N3,0.847651,0.042705,0.028005,0.02355,0.058089
263,7860.0,W,N3,0.787736,0.092916,0.034077,0.019481,0.06579
264,7890.0,W,N3,0.742811,0.085545,0.048773,0.03509,0.087781
265,7920.0,W,N3,0.820393,0.070128,0.033983,0.020987,0.05451
266,7950.0,W,N3,0.813515,0.119303,0.039314,0.010224,0.017644
267,7980.0,W,N3,0.7798,0.145972,0.044538,0.010715,0.018975
268,8010.0,W,N3,0.857593,0.098974,0.026552,0.006046,0.010835
269,8040.0,W,N3,0.864877,0.08039,0.033241,0.008868,0.012624
270,8070.0,W,N3,0.837408,0.086867,0.027974,0.014285,0.033466
271,8100.0,W,N3,0.881788,0.065186,0.021892,0.010437,0.020697
272,8130.0,W,N3,0.903524,0.049162,0.016676,0.008255,0.022383
273,8160.0,W,N3,0.856688,0.087244,0.02407,0.011136,0.020862
274,8190.0,W,N3,0.910044,0.057699,0.016385,0.005657,0.010215
275,8220.0,W,N3,0.792075,0.135159,0.041321,0.011406,0.020039
276,8250.0,W,N3,0.870808,0.088268,0.023232,0.006934,0.010758
277,8280.0,W,N3,0.825345,0.121158,0.032052,0.008686,0.012758
278,8310.0,W,N3,0.788055,0.143732,0.040486,0.00975,0.017977
279,8340.0,W,N3,0.916545,0.054499,0.01374,0.004787,0.010429
280,8370.0,W,N3,0.884001,0.078324,0.020986,0.006721,0.009968
281,8400.0,W,N3,0.88752,0.072624,0.022484,0.006193,0.01118
282,8430.0,W,N3,0.878445,0.076421,0.018896,0.008064,0.018174
283,8460.0,W,N3,0.869941,0.081351,0.023021,0.008589,0.017098
284,8490.0,W,N3,0.881652,0.073425,0.021172,0.008724,0.015027
285,8520.0,W,N3,0.881362,0.074938,0.021624,0.007786,0.01429
286,8550.0,W,N3,0.935268,0.048594,0.008686,0.002857,0.004595
287,8580.0,W,N3,0.898296,0.067435,0.017767,0.00574,0.010762
288,8610.0,W,N3,0.880432,0.077067,0.024291,0.006914,0.011296
289,8640.0,W,N3,0.863466,0.092418,0.021111,0.008206,0.014798
290,8670.0,W,N3,0.805168,0.117208,0.038638,0.013894,0.025091
291,8700.0,W,N3,0.787398,0.151102,0.030815,0.01042,0.020265
292,8730.0,W,N3,0.891964,0.064845,0.01863,0.0077,0.016861
293,8760.0,W,N3,0.852965,0.09845,0.023933,0.008141,0.01651
294,8790.0,W,N3,0.827799,0.11902,0.027793,0.007895,0.017493
295,8820.0,W,N3,0.838776,0.099351,0.030568,0.009901,0.021404
296,8850.0,W,N3,0.868842,0.089645,0.022044,0.006293,0.013176
297,8880.0,W,N3,0.923562,0.047183,0.01345,0.004627,0.011177
298,8910.0,W,N3,0.827006,0.101616,0.027283,0.011011,0.033084
299,8940.0,W,N3,0.852833,0.094097,0.02055,0.008901,0.023619
300,8970.0,W,N3,0.867788,0.076486,0.019213,0.008448,0.028065
301,9000.0,W,N3,0.851895,0.081016,0.024593,0.009777,0.032719
302,9030.0,W,N3,0.851622,0.072878,0.03058,0.010553,0.034367
303,9060.0,W,N3,0.824177,0.103034,0.030438,0.009731,0.03262
304,9090.0,W,N3,0.846117,0.089012,0.027498,0.010192,0.027181
305,9120.0,W,N3,0.848256,0.100568,0.021979,0.008337,0.02086
306,9150.0,W,N3,0.822908,0.093738,0.036213,0.015527,0.031615
307,9180.0,W,N3,0.872771,0.081359,0.020773,0.007553,0.017544
308,9210.0,W,N3,0.871687,0.051298,0.022519,0.016167,0.038328
309,9240.0,W,N3,0.903837,0.044616,0.016119,0.010779,0.024648
310,9270.0,W,N3,0.911216,0.044687,0.017374,0.007702,0.019021
311,9300.0,W,N3,0.840296,0.064134,0.032512,0.018198,0.04486
312,9330.0,W,N3,0.882091,0.053846,0.021747,0.01267,0.029647
313,9360.0,W,N3,0.841283,0.086933,0.032597,0.010724,0.028463
314,9390.0,W,N3,0.830683,0.099163,0.031791,0.011502,0.026862
315,9420.0,W,N3,0.872492,0.080708,0.021118,0.008027,0.017655
316,9450.0,W,N3,0.854525,0.086876,0.02492,0.008442,0.025237
317,9480.0,W,N3,0.881989,0.058847,0.025721,0.011859,0.021584
318,9510.0,W,N3,0.878932,0.080171,0.019167,0.007756,0.013975
319,9540.0,W,N3,0.896514,0.063068,0.019614,0.007055,0.013749
320,9570.0,W,N3,0.8835,0.064101,0.022296,0.010293,0.01981
321,9600.0,W,N3,0.800481,0.088137,0.035617,0.017855,0.057911
322,9630.0,W,N3,0.878352,0.074825,0.021127,0.006682,0.019014
323,9660.0,W,N3,0.831728,0.09087,0.026743,0.013013,0.037647
324,9690.0,W,N3,0.854978,0.066907,0.025474,0.014664,0.037976
325,9720.0,W,N3,0.785867,0.099876,0.031286,0.017517,0.065454
326,9750.0,W,N3,0.886197,0.049506,0.019686,0.011534,0.033077
327,9780.0,W,N3,0.896114,0.049044,0.019903,0.011683,0.023256
328,9810.0,W,N1,0.78211,0.070813,0.046435,0.032848,0.067794
329,9840.0,W,N3,0.856499,0.053742,0.029752,0.018178,0.04183
330,9870.0,W,N3,0.741848,0.074701,0.053481,0.034111,0.095859
331,9900.0,W,N1,0.827932,0.062786,0.03364,0.018217,0.057425
332,9930.0,W,N3,0.935579,0.030578,0.012282,0.007704,0.013857
333,9960.0,W,N3,0.888289,0.050178,0.024027,0.01164,0.025867
334,9990.0,W,N3,0.839798,0.056333,0.03282,0.02063,0.050418
335,10020.0,W,N1,0.771689,0.085001,0.045864,0.029219,0.068227
336,10050.0,W,N3,0.75581,0.094177,0.051606,0.030263,0.068143
337,10080.0,W,N3,0.679889,0.090909,0.079541,0.042501,0.10716
338,10110.0,W,N3,0.696039,0.083547,0.069864,0.042243,0.108307
339,10140.0,W,N3,0.640746,0.092008,0.087578,0.048523,0.131144
340,10170.0,W,N1,0.594497,0.111833,0.099217,0.054157,0.140297
341,10200.0,W,N3,0.599881,0.103916,0.105377,0.050493,0.140333
342,10230.0,W,N3,0.685287,0.095859,0.068452,0.037282,0.11312
343,10260.0,W,N3,0.759071,0.073302,0.055952,0.036696,0.07498
344,10290.0,W,N3,0.685585,0.092655,0.078576,0.042197,0.100986
345,10320.0,W,N1,0.616905,0.123594,0.095147,0.049938,0.114415
346,10350.0,W,N3,0.788399,0.062952,0.045127,0.031543,0.071979
347,10380.0,W,N3,0.644281,0.096066,0.08584,0.049975,0.123837
348,10410.0,W,N3,0.670626,0.102466,0.073929,0.036699,0.11628
349,10440.0,W,N1,0.673027,0.087027,0.079368,0.043688,0.11689
350,10470.0,W,N3,0.69791,0.105727,0.066311,0.036458,0.093595
351,10500.0,W,N3,0.659107,0.097912,0.082475,0.049337,0.111168
352,10530.0,W,N3,0.751055,0.065374,0.062828,0.038142,0.082601
353,10560.0,W,N3,0.663875,0.089511,0.087725,0.051315,0.107576
354,10590.0,W,N3,0.729114,0.073146,0.061567,0.038114,0.098058
355,10620.0,W,N3,0.749177,0.085257,0.051886,0.034836,0.078843
356,10650.0,W,N3,0.784732,0.0683,0.04664,0.027443,0.072884
357,10680.0,W,N3,0.861609,0.047705,0.030629,0.016415,0.043641
358,10710.0,W,N3,0.700216,0.091892,0.071551,0.0345,0.10184
359,10740.0,W,N3,0.691706,0.095783,0.071488,0.047616,0.093407
360,10770.0,W,N1,0.788922,0.084462,0.049868,0.025119,0.05163
361,10800.0,W,N3,0.806661,0.07401,0.03973,0.023731,0.055868
362,10830.0,W,N1,0.841075,0.05576,0.033543,0.021792,0.04783
363,10860.0,W,N3,0.641182,0.100667,0.094697,0.047162,0.116292
364,10890.0,W,N3,0.694854,0.089655,0.06932,0.036731,0.109441
365,10920.0,W,N3,0.776698,0.063724,0.052982,0.0364,0.070195
366,10950.0,W,N3,0.836024,0.059178,0.034365,0.019573,0.05086
367,10980.0,W,N3,0.754152,0.071901,0.056895,0.036392,0.080659
368,11010.0,W,N3,0.831616,0.058732,0.032366,0.016989,0.060296
369,11040.0,W,N1,0.756266,0.101574,0.044258,0.025186,0.072716
370,11070.0,W,N1,0.655389,0.117578,0.057092,0.045741,0.124201
371,11100.0,W,N3,0.827216,0.053009,0.035391,0.025178,0.059206
372,11130.0,W,N3,0.864726,0.043581,0.027037,0.01945,0.045206
373,11160.0,W,N3,0.815646,0.06011,0.041381,0.025209,0.057654
374,11190.0,W,N3,0.841249,0.056119,0.02876,0.018975,0.054897
375,11220.0,W,N3,0.818658,0.061063,0.038172,0.020248,0.061859
376,11250.0,W,N3,0.792781,0.072231,0.041963,0.02398,0.069045
377,11280.0,W,N3,0.874862,0.049456,0.028211,0.01545,0.032021
378,11310.0,W,N3,0.867157,0.03951,0.028235,0.020639,0.044459
379,11340.0,W,N1,0.770832,0.091975,0.043344,0.02545,0.0684
380,11370.0,W,N3,0.777652,0.088588,0.04618,0.027402,0.060178
381,11400.0,W,N3,0.690164,0.104935,0.055687,0.040037,0.109177
382,11430.0,W,N3,0.717798,0.096983,0.05087,0.032617,0.101732
383,11460.0,W,N3,0.722312,0.097101,0.050924,0.031882,0.097781
384,11490.0,W,N3,0.733624,0.08984,0.049525,0.029579,0.097433
385,11520.0,W,N3,0.839265,0.068073,0.024555,0.015483,0.052623
386,11550.0,W,N3,0.843294,0.069294,0.025486,0.01749,0.044435
387,11580.0,W,N3,0.82507,0.056253,0.032216,0.023013,0.063448
388,11610.0,W,N3,0.8263,0.062319,0.03219,0.020812,0.058379
389,11640.0,W,N3,0.831012,0.07061,0.030713,0.02039,0.047276
390,11670.0,W,N3,0.881944,0.051,0.025608,0.014454,0.026994
391,11700.0,W,N3,0.828866,0.078733,0.032432,0.015376,0.044593
392,11730.0,W,N3,0.872244,0.067411,0.021585,0.010478,0.028282
393,11760.0,W,N3,0.904338,0.064579,0.016198,0.004631,0.010253
394,11790.0,W,N3,0.914853,0.052334,0.016338,0.005901,0.010575
395,11820.0,W,N3,0.911206,0.061216,0.012843,0.00429,0.010445
396,11850.0,W,N3,0.901685,0.061218,0.01669,0.00689,0.013518
397,11880.0,W,N3,0.927153,0.041214,0.011858,0.005844,0.013931
398,11910.0,W,N3,0.821336,0.056774,0.037137,0.025643,0.059109
399,11940.0,W,N3,0.82235,0.062658,0.038611,0.021395,0.054986
400,11970.0,W,N3,0.855868,0.059822,0.028459,0.017545,0.038305
401,12000.0,W,N3,0.878943,0.055458,0.021799,0.011651,0.032149
402,12030.0,W,N3,0.93961,0.038436,0.009429,0.004541,0.007984
403,12060.0,W,N3,0.950299,0.031128,0.008389,0.00342,0.006764
404,12090.0,W,N3,0.937499,0.042779,0.009699,0.003583,0.00644
405,12120.0,W,N3,0.933415,0.045115,0.010866,0.003814,0.006791
406,12150.0,W,N3,0.916725,0.058643,0.011192,0.004534,0.008906
407,12180.0,W,N3,0.929623,0.047377,0.011313,0.003629,0.008059
408,12210.0,W,N3,0.929596,0.043675,0.01218,0.004935,0.009614
409,12240.0,W,N3,0.938112,0.041939,0.009753,0.003642,0.006553
410,12270.0,W,N3,0.926037,0.055198,0.008452,0.003463,0.006851
411,12300.0,W,N3,0.938992,0.041704,0.008037,0.003855,0.007412
412,12330.0,W,N3,0.94491,0.035687,0.007737,0.003819,0.007847
413,12360.0,W,N3,0.905963,0.059599,0.01536,0.006448,0.012629
414,12390.0,W,N3,0.917591,0.055834,0.012752,0.004512,0.009311
415,12420.0,W,N3,0.909798,0.054263,0.017942,0.005399,0.012598
416,12450.0,W,N3,0.930047,0.047868,0.011258,0.003968,0.006858
417,12480.0,W,N3,0.945325,0.036643,0.009455,0.002711,0.005866
418,12510.0,W,N3,0.933549,0.045996,0.009881,0.003632,0.006943
419,12540.0,W,N3,0.92685,0.04306,0.011692,0.005462,0.012936
420,12570.0,W,N3,0.943721,0.034718,0.010443,0.004035,0.007083
421,12600.0,W,N3,0.94609,0.037777,0.007951,0.00306,0.005122
422,12630.0,W,N3,0.934689,0.043974,0.011903,0.003214,0.00622
423,12660.0,W,N3,0.945078,0.033899,0.011041,0.004055,0.005927
424,12690.0,W,N3,0.920493,0.049219,0.015224,0.005334,0.00973
425,12720.0,W,N3,0.938586,0.041132,0.010299,0.003242,0.00674
426,12750.0,W,N3,0.938068,0.041692,0.011032,0.002974,0.006233
427,12780.0,W,N3,0.929371,0.033844,0.012303,0.008331,0.01615
428,12810.0,W,N3,0.907184,0.066206,0.0139,0.003982,0.008728
429,12840.0,W,N3,0.891488,0.044239,0.019567,0.013641,0.031065
430,12870.0,W,N3,0.8118,0.071458,0.040753,0.023289,0.0527
431,12900.0,W,N3,0.813485,0.070884,0.038184,0.026323,0.051124
432,12930.0,W,N3,0.858907,0.053891,0.031602,0.016599,0.039002
433,12960.0,W,N3,0.830443,0.054402,0.038758,0.022236,0.05416
434,12990.0,W,N3,0.845655,0.056708,0.033447,0.019687,0.044503
435,13020.0,W,N1,0.803239,0.070539,0.035454,0.024431,0.066336
436,13050.0,W,N1,0.804125,0.075905,0.036417,0.022708,0.060845
437,13080.0,W,N3,0.792992,0.062892,0.044882,0.030415,0.068819
438,13110.0,W,N3,0.810139,0.077893,0.040213,0.02206,0.049695
439,13140.0,W,N3,0.81447,0.069954,0.041474,0.01933,0.054772
440,13170.0,W,N3,0.772059,0.081731,0.050936,0.022618,0.072656
441,13200.0,W,N3,0.819076,0.07238,0.035548,0.019408,0.053588
442,13230.0,W,N3,0.76874,0.086683,0.047886,0.023659,0.073032
443,13260.0,W,N1,0.783548,0.082906,0.045108,0.023362,0.065076
444,13290.0,W,N1,0.733006,0.092407,0.059059,0.029555,0.085972
445,13320.0,W,N1,0.724768,0.081447,0.066613,0.031832,0.09534
446,13350.0,W,N3,0.681096,0.105624,0.065694,0.0396,0.107986
447,13380.0,W,N3,0.752242,0.073984,0.063344,0.030505,0.079925
448,13410.0,W,N3,0.581649,0.113945,0.105016,0.058132,0.141258
449,13440.0,W,N3,0.835902,0.057473,0.034553,0.021067,0.051005
450,13470.0,W,N1,0.762659,0.069232,0.052462,0.036533,0.079114
451,13500.0,W,N3,0.762953,0.079088,0.05159,0.034334,0.072035
452,13530.0,W,N3,0.787747,0.076015,0.045597,0.027839,0.062802
453,13560.0,W,N1,0.73995,0.069437,0.062546,0.032937,0.095129
454,13590.0,W,N3,0.823854,0.065801,0.036054,0.02407,0.05022
455,13620.0,W,N1,0.836473,0.062439,0.031817,0.022369,0.046901
456,13650.0,W,N3,0.845838,0.059901,0.035004,0.017396,0.041861
457,13680.0,W,N3,0.833688,0.064834,0.033223,0.021034,0.047221
458,13710.0,W,N3,0.849574,0.050502,0.034445,0.017597,0.047882
459,13740.0,W,N3,0.875802,0.050187,0.022129,0.015806,0.036077
460,13770.0,W,N3,0.816717,0.07499,0.03194,0.020569,0.055783
461,13800.0,W,N1,0.752358,0.107313,0.042979,0.023931,0.073418
462,13830.0,W,N1,0.638872,0.119723,0.07524,0.045047,0.121118
463,13860.0,W,N3,0.818387,0.074138,0.036444,0.021013,0.050019
464,13890.0,W,N3,0.767363,0.104468,0.041372,0.02198,0.064817
465,13920.0,W,N3,0.856461,0.064452,0.023833,0.014312,0.040941
466,13950.0,W,N3,0.866901,0.052474,0.025707,0.014302,0.040616
467,13980.0,W,N3,0.89393,0.044357,0.020778,0.010777,0.030159
468,14010.0,W,N3,0.853878,0.063243,0.028785,0.012669,0.041425
469,14040.0,W,N3,0.890308,0.05044,0.020652,0.009702,0.028898
470,14070.0,W,N3,0.907123,0.044669,0.017586,0.008065,0.022557
471,14100.0,W,N3,0.887032,0.04795,0.023672,0.010029,0.031316
472,14130.0,W,N1,0.845207,0.05855,0.030979,0.017453,0.047812
473,14160.0,W,N3,0.867689,0.054151,0.0256,0.015871,0.036688
474,14190.0,W,N1,0.803115,0.090392,0.031931,0.021857,0.052704
475,14220.0,W,N1,0.858779,0.081953,0.022244,0.011109,0.025915
476,14250.0,W,N3,0.807653,0.09506,0.030316,0.01829,0.048681
477,14280.0,W,N3,0.923911,0.03857,0.012815,0.007312,0.017392
478,14310.0,W,N3,0.926662,0.048383,0.012108,0.004386,0.008462
479,14340.0,W,N3,0.908332,0.042657,0.015458,0.007949,0.025604
480,14370.0,W,N3,0.835135,0.049227,0.029936,0.022361,0.063341
481,14400.0,W,N3,0.795303,0.061899,0.038828,0.027418,0.076553
482,14430.0,W,N3,0.709487,0.09139,0.049544,0.039315,0.110264
483,14460.0,W,N1,0.53842,0.128916,0.076066,0.053734,0.202863
484,14490.0,W,N1,0.735384,0.082536,0.04493,0.030838,0.106311
485,14520.0,W,N3,0.821569,0.061342,0.031123,0.019985,0.06598
486,14550.0,W,N3,0.824485,0.052636,0.032251,0.018171,0.072457
487,14580.0,W,N3,0.741326,0.077361,0.04964,0.034314,0.097359
488,14610.0,W,N3,0.743863,0.074477,0.05138,0.028889,0.101392
489,14640.0,W,N3,0.861972,0.057246,0.026399,0.017744,0.036639
490,14670.0,W,N1,0.855818,0.052014,0.027025,0.018762,0.046381
491,14700.0,W,N3,0.851844,0.056298,0.027415,0.019578,0.044865
492,14730.0,W,N3,0.911415,0.044477,0.015547,0.009017,0.019544
493,14760.0,W,N3,0.907258,0.055642,0.015005,0.006605,0.01549
494,14790.0,W,N3,0.891202,0.058615,0.019649,0.009387,0.021148
495,14820.0,W,N3,0.92173,0.047436,0.012683,0.005749,0.012401
496,14850.0,W,N3,0.829668,0.086617,0.030776,0.014399,0.038541
497,14880.0,W,N3,0.902729,0.062309,0.015059,0.0058,0.014104
498,14910.0,W,N3,0.882162,0.072267,0.02026,0.008873,0.016438
499,14940.0,W,N3,0.866325,0.089383,0.022599,0.007643,0.01405
500,14970.0,W,N3,0.90584,0.061187,0.016765,0.005292,0.010916
501,15000.0,W,N3,0.885855,0.066611,0.017953,0.008212,0.021369
502,15030.0,W,N3,0.875207,0.066507,0.024102,0.00917,0.025014
503,15060.0,W,N3,0.81237,0.106427,0.030652,0.012125,0.038426
504,15090.0,W,N3,0.837299,0.097786,0.030052,0.010108,0.024755
505,15120.0,W,N3,0.824166,0.103589,0.031031,0.013994,0.02722
506,15150.0,W,N3,0.823606,0.105354,0.029226,0.008936,0.032878
507,15180.0,W,N3,0.81576,0.101788,0.03871,0.011969,0.031772
508,15210.0,W,N3,0.805462,0.116547,0.035272,0.010978,0.03174
509,15240.0,W,N3,0.918008,0.050756,0.01454,0.005866,0.01083
510,15270.0,W,N3,0.886536,0.067335,0.019654,0.006708,0.019767
511,15300.0,W,N3,0.811938,0.101736,0.037688,0.011996,0.036642
512,15330.0,W,N3,0.743176,0.149373,0.04164,0.017655,0.048156
513,15360.0,W,N3,0.869684,0.084912,0.021837,0.007848,0.015719
514,15390.0,W,N3,0.825883,0.109616,0.025413,0.011328,0.027759
515,15420.0,W,N1,0.851246,0.07746,0.024812,0.015839,0.030643
516,15450.0,W,N3,0.869364,0.085773,0.016815,0.007918,0.020131
517,15480.0,W,N3,0.904749,0.06127,0.01561,0.006528,0.011843
518,15510.0,W,N3,0.920626,0.045625,0.014327,0.006756,0.012666
519,15540.0,W,N1,0.854178,0.059683,0.022318,0.017562,0.046258
520,15570.0,W,N1,0.829274,0.078295,0.030368,0.017258,0.044805
521,15600.0,W,N1,0.882785,0.048889,0.023369,0.012899,0.032059
522,15630.0,W,N3,0.846978,0.065545,0.030084,0.014175,0.043219
523,15660.0,W,N3,0.838531,0.078416,0.028184,0.014291,0.040578
524,15690.0,W,N1,0.872379,0.067344,0.021843,0.010635,0.027799
525,15720.0,W,N3,0.922309,0.040838,0.015314,0.005711,0.015828
526,15750.0,W,N3,0.934612,0.035625,0.011455,0.004912,0.013396
527,15780.0,W,N3,0.895301,0.057348,0.017828,0.00799,0.021533
528,15810.0,W,N3,0.916415,0.046703,0.015249,0.006181,0.015452
529,15840.0,W,N3,0.921248,0.052108,0.012156,0.004548,0.00994
530,15870.0,W,N3,0.8915,0.0695,0.017746,0.006887,0.014368
531,15900.0,W,N3,0.914064,0.056557,0.01304,0.004397,0.011942
532,15930.0,W,N3,0.932817,0.047935,0.009714,0.003583,0.005952
533,15960.0,W,N3,0.910286,0.052966,0.016225,0.005676,0.014846
534,15990.0,W,N3,0.880552,0.071423,0.019148,0.007603,0.021274
535,16020.0,W,N3,0.928503,0.047062,0.011186,0.004195,0.009054
536,16050.0,W,N3,0.900459,0.050526,0.015882,0.009008,0.024124
537,16080.0,W,N3,0.92489,0.043299,0.013601,0.005546,0.012664
538,16110.0,W,N3,0.936411,0.042296,0.008889,0.003401,0.009003
539,16140.0,W,N3,0.933528,0.044814,0.010992,0.003005,0.007661
540,16170.0,W,N3,0.925821,0.049124,0.010347,0.004113,0.010595
541,16200.0,W,N3,0.923805,0.051625,0.012164,0.004114,0.008292
542,16230.0,W,N3,0.908091,0.059376,0.015027,0.005866,0.01164
543,16260.0,W,N3,0.896853,0.064267,0.01748,0.007031,0.014368
544,16290.0,W,N3,0.92844,0.0476,0.011921,0.0047,0.00734
545,16320.0,W,N3,0.885927,0.068227,0.021389,0.007711,0.016746
546,16350.0,W,N3,0.905657,0.060921,0.017128,0.005386,0.010908
547,16380.0,W,N3,0.903144,0.0593,0.019128,0.007163,0.011266
548,16410.0,W,N3,0.853248,0.092355,0.021484,0.010375,0.022537
549,16440.0,W,N3,0.838134,0.107632,0.023062,0.010342,0.02083
550,16470.0,W,N3,0.821835,0.10956,0.033093,0.012119,0.023392
551,16500.0,W,N3,0.866637,0.088752,0.021471,0.008811,0.014329
552,16530.0,W,N3,0.93184,0.042819,0.011633,0.004724,0.008983
553,16560.0,W,N3,0.890667,0.068801,0.018721,0.00714,0.01467
554,16590.0,W,N3,0.908495,0.05826,0.015319,0.006198,0.011728
555,16620.0,W,N3,0.952837,0.031143,0.007216,0.00306,0.005743
556,16650.0,W,N3,0.933909,0.042365,0.012067,0.004057,0.007601
557,16680.0,W,N3,0.94271,0.036959,0.010648,0.003223,0.00646
558,16710.0,W,N3,0.933358,0.042632,0.011746,0.00425,0.008013
559,16740.0,W,N3,0.931005,0.042591,0.014655,0.004194,0.007554
560,16770.0,W,N3,0.947519,0.033404,0.009542,0.003218,0.006316
561,16800.0,W,N3,0.948977,0.03586,0.007823,0.002763,0.004577
562,16830.0,W,N3,0.935096,0.041355,0.011136,0.00343,0.008984
563,16860.0,W,N3,0.942517,0.036003,0.011077,0.003609,0.006793
564,16890.0,W,N3,0.894344,0.071625,0.016978,0.005782,0.01127
565,16920.0,W,N3,0.931963,0.046357,0.010533,0.003546,0.007601
566,16950.0,W,N3,0.933514,0.043497,0.010389,0.003511,0.009088
567,16980.0,W,N3,0.894234,0.06501,0.019038,0.007229,0.014488
568,17010.0,W,N3,0.868278,0.083579,0.01968,0.008735,0.019729
569,17040.0,W,N3,0.954978,0.027493,0.007074,0.002782,0.007673
570,17070.0,W,N3,0.909488,0.057044,0.013994,0.005694,0.01378
571,17100.0,W,N3,0.927689,0.048636,0.009858,0.004472,0.009345
572,17130.0,W,N3,0.930692,0.041534,0.010637,0.005081,0.012056
573,17160.0,W,N1,0.880159,0.058964,0.021673,0.010676,0.028528
574,17190.0,W,N1,0.884636,0.067722,0.017452,0.00872,0.02147
575,17220.0,W,N3,0.847703,0.099547,0.021162,0.008386,0.023202
576,17250.0,W,N3,0.948891,0.038648,0.006131,0.002247,0.004083
577,17280.0,W,N3,0.948629,0.035696,0.008152,0.002857,0.004666
578,17310.0,W,N3,0.938533,0.039203,0.012068,0.00384,0.006356
579,17340.0,W,N3,0.945609,0.036222,0.009918,0.002864,0.005387
580,17370.0,W,N3,0.95203,0.033387,0.007518,0.002814,0.004252
581,17400.0,W,N3,0.93545,0.04725,0.008686,0.003492,0.005122
582,17430.0,W,N3,0.955513,0.032298,0.005758,0.002233,0.004198
583,17460.0,W,N3,0.953146,0.032588,0.006827,0.002657,0.004782
584,17490.0,W,N3,0.954732,0.031611,0.006729,0.002508,0.00442
585,17520.0,W,N3,0.944734,0.037565,0.008336,0.003139,0.006225
586,17550.0,W,N3,0.930047,0.04504,0.011844,0.004546,0.008522
587,17580.0,W,N3,0.946065,0.038582,0.006982,0.002682,0.00569
588,17610.0,W,N3,0.9403,0.037931,0.009658,0.003395,0.008716
589,17640.0,W,N3,0.941533,0.041525,0.008388,0.003138,0.005416
590,17670.0,W,N3,0.942994,0.038074,0.009137,0.003398,0.006397
591,17700.0,W,N3,0.933984,0.044317,0.010425,0.003564,0.007711
592,17730.0,W,N3,0.943583,0.03704,0.008623,0.003679,0.007076
593,17760.0,W,N3,0.955614,0.027941,0.007328,0.00284,0.006277
594,17790.0,W,N3,0.942238,0.035927,0.010543,0.003708,0.007584
595,17820.0,W,N3,0.939171,0.036239,0.008754,0.004957,0.010879
596,17850.0,W,N3,0.956899,0.029013,0.007043,0.002605,0.00444
597,17880.0,W,N3,0.963475,0.026208,0.004468,0.002031,0.003818
598,17910.0,W,N3,0.960241,0.029417,0.004814,0.001781,0.003747
599,17940.0,W,N3,0.954808,0.03026,0.007192,0.002795,0.004945
600,17970.0,W,N3,0.959014,0.028337,0.006444,0.00213,0.004075
601,18000.0,W,N3,0.951998,0.028276,0.010768,0.003226,0.005733
602,18030.0,W,N3,0.943566,0.03472,0.010779,0.003599,0.007337
603,18060.0,W,N3,0.947542,0.026212,0.009899,0.004549,0.011798
604,18090.0,W,N3,0.967804,0.021033,0.005691,0.002014,0.003459
605,18120.0,W,N3,0.967472,0.021687,0.005534,0.00187,0.003437
606,18150.0,W,N3,0.960501,0.026383,0.006863,0.002155,0.004098
607,18180.0,W,N3,0.969014,0.020329,0.00561,0.001804,0.003243
608,18210.0,W,N3,0.965605,0.022293,0.00601,0.002078,0.004014
609,18240.0,W,N3,0.963041,0.025239,0.005932,0.002006,0.003782
610,18270.0,W,N3,0.970799,0.019524,0.004476,0.001712,0.003488
611,18300.0,W,N3,0.969162,0.020917,0.004893,0.001473,0.003556
612,18330.0,W,N3,0.969674,0.01966,0.004818,0.001628,0.004221
613,18360.0,W,N3,0.963811,0.023787,0.00546,0.002026,0.004916
614,18390.0,W,N3,0.967148,0.020841,0.005389,0.001896,0.004726
615,18420.0,W,N3,0.960181,0.025217,0.006833,0.002442,0.005327
616,18450.0,W,N3,0.964135,0.022419,0.005838,0.002675,0.004933
617,18480.0,W,N3,0.953822,0.034854,0.006058,0.002005,0.003262
618,18510.0,W,N3,0.941077,0.044163,0.007633,0.002595,0.004533
619,18540.0,W,N3,0.954941,0.034964,0.005434,0.001569,0.003093
620,18570.0,W,N3,0.942865,0.044099,0.007306,0.002403,0.003328
621,18600.0,W,N3,0.946451,0.041728,0.006046,0.001808,0.003967
622,18630.0,W,N3,0.958563,0.03165,0.004717,0.001766,0.003304
623,18660.0,W,N3,0.948586,0.041153,0.005289,0.001641,0.00333
624,18690.0,W,N3,0.952127,0.038059,0.005031,0.001891,0.002891
625,18720.0,W,N3,0.949824,0.039161,0.005739,0.001934,0.003341
626,18750.0,W,N3,0.958529,0.03047,0.005961,0.001779,0.00326
627,18780.0,W,N3,0.946681,0.038323,0.008314,0.002458,0.004224
628,18810.0,W,N3,0.933152,0.048638,0.009203,0.003015,0.005992
629,18840.0,W,N3,0.942366,0.041383,0.007648,0.002995,0.005608
630,18870.0,W,N3,0.937124,0.046017,0.008396,0.002714,0.00575
631,18900.0,W,N3,0.932128,0.036665,0.009166,0.005805,0.016236
632,18930.0,W,N3,0.851516,0.057328,0.030246,0.018827,0.042082
633,18960.0,W,N3,0.888568,0.044093,0.020458,0.016143,0.030738
634,18990.0,W,N3,0.848004,0.06303,0.02502,0.012438,0.051509
635,19020.0,W,N3,0.930903,0.038339,0.011898,0.005693,0.013167
636,19050.0,W,N3,0.898299,0.063207,0.01517,0.007635,0.015689
637,19080.0,W,N3,0.879557,0.047463,0.024145,0.015473,0.033363
638,19110.0,W,N1,0.737324,0.093548,0.053208,0.030917,0.085003
639,19140.0,W,N3,0.875458,0.043845,0.022341,0.017731,0.040625
640,19170.0,W,N3,0.848305,0.057055,0.024424,0.017214,0.053002
641,19200.0,W,N3,0.876569,0.048441,0.022571,0.016371,0.036048
642,19230.0,W,N3,0.803017,0.06345,0.042624,0.026479,0.064429
643,19260.0,W,N3,0.895654,0.043022,0.020797,0.010283,0.030244
644,19290.0,W,N3,0.889436,0.03431,0.024263,0.014549,0.037442
645,19320.0,W,N3,0.796351,0.047281,0.039823,0.025987,0.090558
646,19350.0,W,N3,0.901566,0.049548,0.017422,0.009503,0.021962
647,19380.0,W,N3,0.815587,0.05548,0.035012,0.023158,0.070762
648,19410.0,W,N1,0.787251,0.062943,0.038729,0.030661,0.080416
649,19440.0,W,N3,0.797095,0.057235,0.033848,0.028153,0.083668
650,19470.0,W,N3,0.796134,0.063836,0.042709,0.027594,0.069728
651,19500.0,W,N3,0.776579,0.057525,0.042175,0.032067,0.091655
652,19530.0,W,N3,0.86328,0.049112,0.025002,0.017385,0.045221
653,19560.0,W,N3,0.779217,0.07105,0.043015,0.032868,0.07385
654,19590.0,W,N3,0.880228,0.052547,0.020683,0.011999,0.034543
655,19620.0,W,N3,0.767354,0.070572,0.04111,0.029379,0.091585
656,19650.0,W,N3,0.757083,0.073612,0.043053,0.03243,0.093823
657,19680.0,W,N3,0.785189,0.074894,0.035793,0.027104,0.077021
658,19710.0,W,N3,0.834787,0.06179,0.031646,0.016078,0.055699
659,19740.0,W,N3,0.821535,0.063195,0.034326,0.022388,0.058556
660,19770.0,W,N3,0.837928,0.055434,0.033882,0.020353,0.052402
661,19800.0,W,N3,0.920089,0.03215,0.016696,0.009325,0.02174
662,19830.0,W,N3,0.842225,0.071351,0.026719,0.021236,0.038469
663,19860.0,W,N1,0.758075,0.084821,0.047391,0.030693,0.079021
664,19890.0,W,N1,0.748611,0.062397,0.063468,0.042962,0.082562
665,19920.0,W,N3,0.825637,0.072797,0.033074,0.022619,0.045874
666,19950.0,W,N1,0.79261,0.064848,0.045632,0.026258,0.070652
667,19980.0,W,N3,0.820032,0.06694,0.034617,0.022269,0.056142
668,20010.0,W,N3,0.788701,0.069337,0.044584,0.027789,0.06959
669,20040.0,W,N3,0.88212,0.043946,0.024196,0.016759,0.032979
670,20070.0,W,N3,0.803665,0.064661,0.03685,0.023926,0.070898
671,20100.0,W,N3,0.783768,0.091485,0.038952,0.023957,0.061838
672,20130.0,W,N1,0.794107,0.093645,0.035158,0.022279,0.054812
673,20160.0,W,N3,0.871622,0.065287,0.022091,0.011795,0.029204
674,20190.0,W,N3,0.782095,0.084395,0.040739,0.023011,0.06976
675,20220.0,W,N1,0.682891,0.08066,0.065888,0.056158,0.114404
676,20250.0,W,N1,0.622163,0.104362,0.078971,0.049899,0.144606
677,20280.0,W,N1,0.833416,0.073422,0.025002,0.019488,0.048672
678,20310.0,W,N3,0.90041,0.055562,0.017717,0.00793,0.018381
679,20340.0,W,N3,0.918983,0.02686,0.016264,0.012942,0.024951
680,20370.0,W,N1,0.878906,0.040504,0.0225,0.019009,0.039081
681,20400.0,W,N3,0.842145,0.063603,0.026024,0.019273,0.048955
682,20430.0,W,N3,0.847606,0.072205,0.02253,0.01763,0.040029
683,20460.0,W,N3,0.822908,0.057275,0.034692,0.024241,0.060884
684,20490.0,W,N3,0.85587,0.053047,0.030749,0.015691,0.044643
685,20520.0,W,N1,0.795011,0.059487,0.037184,0.029055,0.079263
686,20550.0,W,N3,0.878589,0.053389,0.020646,0.013405,0.033971
687,20580.0,W,N3,0.880685,0.062508,0.015425,0.010608,0.030774
688,20610.0,W,N3,0.903482,0.042796,0.015328,0.012121,0.026274
689,20640.0,W,N3,0.843545,0.060968,0.027846,0.016892,0.050749
690,20670.0,W,N3,0.896982,0.050768,0.016821,0.01024,0.025189
691,20700.0,W,N3,0.833033,0.066868,0.02733,0.019271,0.053498
692,20730.0,W,N3,0.835143,0.061185,0.026861,0.01855,0.058261
693,20760.0,W,N3,0.856007,0.065078,0.025257,0.015573,0.038084
694,20790.0,W,N3,0.921249,0.048907,0.011057,0.005701,0.013087
695,20820.0,W,N3,0.933116,0.035168,0.011086,0.006169,0.014462
696,20850.0,W,N3,0.866194,0.05494,0.019597,0.015429,0.043839
697,20880.0,W,N3,0.85002,0.04827,0.02464,0.01758,0.059491
698,20910.0,W,N3,0.870556,0.046625,0.021284,0.015813,0.045722
699,20940.0,W,N3,0.855667,0.070642,0.02106,0.014085,0.038546
700,20970.0,W,N3,0.918984,0.058683,0.010764,0.004642,0.006928
701,21000.0,W,N3,0.929135,0.055995,0.007998,0.002652,0.00422
702,21030.0,W,N3,0.889659,0.060909,0.016045,0.009822,0.023565
703,21060.0,W,N3,0.89064,0.055016,0.01736,0.011784,0.0252
704,21090.0,W,N3,0.857951,0.045141,0.026218,0.025679,0.045011
705,21120.0,W,N3,0.925464,0.049048,0.009253,0.005503,0.010731
706,21150.0,W,N3,0.930002,0.057635,0.007194,0.002067,0.003102
707,21180.0,W,N3,0.928988,0.053363,0.00938,0.002509,0.00576
708,21210.0,W,N3,0.935567,0.050712,0.00735,0.002214,0.004157
709,21240.0,W,N3,0.94928,0.033426,0.006485,0.003004,0.007806
710,21270.0,W,N1,0.936604,0.027231,0.018882,0.005643,0.01164
711,21300.0,W,N1,0.844927,0.026208,0.073888,0.014745,0.040233
712,21330.0,W,N3,0.909525,0.020633,0.052447,0.003565,0.01383
713,21360.0,W,N3,0.737096,0.038035,0.177034,0.009476,0.038359
714,21390.0,W,N1,0.529155,0.090702,0.306266,0.016435,0.057442
715,21420.0,W,N3,0.60406,0.092311,0.224835,0.017745,0.061049
716,21450.0,W,N3,0.635132,0.092505,0.201271,0.019264,0.051828
717,21480.0,W,N1,0.569067,0.120793,0.216839,0.023157,0.070144
718,21510.0,W,N1,0.7195,0.10447,0.11984,0.013052,0.043137
719,21540.0,N1,N1,0.667095,0.14841,0.111877,0.018446,0.054172
720,21570.0,N1,N1,0.625836,0.182198,0.093058,0.022938,0.07597
721,21600.0,N1,N3,0.646622,0.186108,0.066865,0.022889,0.077516
722,21630.0,N1,N1,0.717971,0.146767,0.057115,0.020195,0.057952
723,21660.0,N1,N1,0.692063,0.144722,0.079341,0.022685,0.061188
724,21690.0,N1,N3,0.688099,0.176761,0.056911,0.02188,0.056348
725,21720.0,N1,N3,0.656797,0.228666,0.052626,0.016044,0.045866
726,21750.0,N1,N3,0.711643,0.192462,0.040619,0.0172,0.038077
727,21780.0,N1,N3,0.823677,0.137133,0.019933,0.007552,0.011706
728,21810.0,N1,N3,0.706461,0.20549,0.03558,0.015926,0.036544
729,21840.0,N1,N3,0.776592,0.142634,0.034239,0.012549,0.033985
730,21870.0,N1,N3,0.677729,0.230563,0.052456,0.015514,0.023738
731,21900.0,N2,N3,0.751625,0.190303,0.034803,0.010291,0.012978
732,21930.0,N2,N3,0.759344,0.17334,0.032237,0.014375,0.020704
733,21960.0,N1,N3,0.835424,0.127776,0.020708,0.006249,0.009843
734,21990.0,N1,N3,0.724541,0.186467,0.045017,0.017684,0.026291
735,22020.0,N2,N3,0.632129,0.300358,0.031307,0.024063,0.012143
736,22050.0,N2,N3,0.665148,0.225091,0.053866,0.033465,0.02243
737,22080.0,N2,N3,0.696742,0.230323,0.038409,0.021057,0.01347
738,22110.0,N2,N3,0.678292,0.208511,0.05961,0.042002,0.011584
739,22140.0,N2,N3,0.778437,0.13763,0.05273,0.020057,0.011146
740,22170.0,N2,N3,0.799212,0.122749,0.042275,0.016388,0.019376
741,22200.0,N1,N3,0.77806,0.061395,0.099339,0.013826,0.047381
742,22230.0,N1,N3,0.590062,0.13741,0.187816,0.021378,0.063335
743,22260.0,N1,N3,0.859041,0.016708,0.087533,0.007894,0.028824
744,22290.0,N1,N1,0.690139,0.134492,0.074622,0.028409,0.072338
745,22320.0,N1,N1,0.631148,0.118952,0.153278,0.027943,0.068679
746,22350.0,N1,N1,0.581399,0.12244,0.2007,0.021841,0.07362
747,22380.0,N1,N1,0.661037,0.13523,0.104903,0.022732,0.076098
748,22410.0,N1,N3,0.692017,0.129593,0.099353,0.022781,0.056256
749,22440.0,N1,N3,0.646553,0.171747,0.103942,0.024344,0.053414
750,22470.0,N1,N3,0.634693,0.117245,0.174821,0.01802,0.055221
751,22500.0,N1,N3,0.582747,0.114463,0.201016,0.021466,0.080308
752,22530.0,N1,N3,0.68088,0.177157,0.059239,0.023143,0.059581
753,22560.0,N1,N3,0.722427,0.205049,0.034571,0.013736,0.024218
754,22590.0,N1,N3,0.741718,0.153336,0.049639,0.018721,0.036585
755,22620.0,N1,N3,0.716573,0.058098,0.167933,0.012566,0.044831
756,22650.0,N1,N1,0.747353,0.051582,0.133066,0.015384,0.052615
757,22680.0,N1,N3,0.893146,0.038528,0.040828,0.006168,0.02133
758,22710.0,W,N3,0.950077,0.020293,0.020951,0.002021,0.006658
759,22740.0,N1,N3,0.887333,0.02071,0.059682,0.008751,0.023523
760,22770.0,N1,N1,0.678384,0.083515,0.173383,0.015951,0.048767
761,22800.0,N1,N1,0.674212,0.125053,0.119185,0.023443,0.058107
762,22830.0,N1,N1,0.648537,0.130409,0.114318,0.024546,0.08219
763,22860.0,N1,N3,0.725842,0.126466,0.068989,0.021577,0.057126
764,22890.0,N2,N3,0.785271,0.148687,0.028115,0.011707,0.026219
765,22920.0,N2,N3,0.745337,0.170042,0.038734,0.015712,0.030175
766,22950.0,N2,N3,0.660784,0.179839,0.083293,0.021837,0.054247
767,22980.0,N2,N3,0.818583,0.133916,0.02527,0.008987,0.013243
768,23010.0,N2,N3,0.740589,0.131135,0.079565,0.02267,0.026041
769,23040.0,N2,N3,0.684976,0.135615,0.076225,0.024768,0.078416
770,23070.0,N1,N3,0.961838,0.011565,0.011185,0.00313,0.012282
771,23100.0,N1,N3,0.82234,0.058861,0.072022,0.010817,0.03596
772,23130.0,N1,N1,0.599966,0.115374,0.209832,0.016533,0.058295
773,23160.0,N1,N3,0.639791,0.118285,0.143084,0.027127,0.071713
774,23190.0,N1,N3,0.66207,0.132038,0.088237,0.030352,0.087303
775,23220.0,N1,N3,0.709726,0.176479,0.046337,0.018877,0.048581
776,23250.0,N1,N3,0.809152,0.051151,0.092744,0.010212,0.036742
777,23280.0,W,N3,0.895611,0.046542,0.038483,0.003893,0.01547
778,23310.0,W,N3,0.642511,0.05865,0.245876,0.011465,0.041498
779,23340.0,N1,N1,0.635269,0.130685,0.141638,0.02261,0.069798
780,23370.0,N1,N3,0.631021,0.1241,0.149989,0.022737,0.072154
781,23400.0,N1,N3,0.732674,0.13831,0.06468,0.019784,0.044552
782,23430.0,N1,N3,0.764059,0.145375,0.040911,0.016352,0.033302
783,23460.0,N1,N3,0.766843,0.134788,0.038952,0.018333,0.041085
784,23490.0,N1,N3,0.824202,0.12925,0.024247,0.008586,0.013714
785,23520.0,N2,N3,0.869882,0.094362,0.019004,0.008854,0.007898
786,23550.0,N2,N3,0.802563,0.139105,0.030492,0.016593,0.011247
787,23580.0,N2,N3,0.767809,0.165862,0.035576,0.020983,0.00977
788,23610.0,N2,N3,0.675226,0.183792,0.063754,0.065128,0.012099
789,23640.0,N2,N3,0.784507,0.132549,0.045448,0.031349,0.006148
790,23670.0,N2,N3,0.683247,0.190283,0.064003,0.053035,0.009432
791,23700.0,N2,N3,0.770358,0.148211,0.042047,0.032391,0.006993
792,23730.0,N2,N3,0.673851,0.229986,0.04923,0.039306,0.007626
793,23760.0,N2,N3,0.739472,0.175792,0.041217,0.037501,0.006017
794,23790.0,N2,N3,0.766914,0.150307,0.043862,0.033289,0.005627
795,23820.0,N2,N3,0.840723,0.106349,0.024137,0.024643,0.004147
796,23850.0,N2,N3,0.798495,0.138414,0.03261,0.025599,0.004882
797,23880.0,N3,N3,0.815544,0.126367,0.029915,0.024028,0.004146
798,23910.0,N2,N3,0.828536,0.122471,0.033871,0.010335,0.004787
799,23940.0,N2,N3,0.810813,0.13959,0.02641,0.018476,0.004712
800,23970.0,N2,N3,0.8013,0.131198,0.031609,0.032008,0.003886
801,24000.0,N2,N3,0.800077,0.147866,0.02928,0.019517,0.00326
802,24030.0,N3,N3,0.846043,0.117659,0.021825,0.011807,0.002666
803,24060.0,N3,N3,0.853392,0.111632,0.018895,0.012745,0.003336
804,24090.0,N3,N3,0.861249,0.102459,0.018581,0.014298,0.003413
805,24120.0,N3,N3,0.877629,0.093605,0.017185,0.009299,0.002281
806,24150.0,N3,N3,0.868389,0.099972,0.021558,0.007605,0.002475
807,24180.0,N3,N3,0.899004,0.080354,0.013552,0.005554,0.001536
808,24210.0,N3,N3,0.853496,0.112926,0.016676,0.013912,0.00299
809,24240.0,N3,N3,0.877877,0.093539,0.015407,0.009621,0.003555
810,24270.0,N3,N3,0.903889,0.070038,0.016316,0.007467,0.002291
811,24300.0,N3,N3,0.898264,0.075166,0.014563,0.009951,0.002055
812,24330.0,N3,N3,0.914991,0.065439,0.012228,0.005515,0.001827
813,24360.0,N3,N3,0.911369,0.066945,0.013119,0.006633,0.001933
814,24390.0,N3,N3,0.891866,0.086207,0.01437,0.005858,0.001699
815,24420.0,N3,N3,0.895561,0.084505,0.012232,0.005718,0.001985
816,24450.0,N3,N3,0.902863,0.078464,0.012416,0.00447,0.001788
817,24480.0,N3,N3,0.918532,0.063323,0.009572,0.007084,0.001488
818,24510.0,N3,N3,0.913775,0.069844,0.010235,0.004325,0.001821
819,24540.0,N3,N3,0.882203,0.08811,0.017484,0.009955,0.002248
820,24570.0,N3,N3,0.904513,0.07892,0.009812,0.005012,0.001743
821,24600.0,N3,N3,0.906399,0.07582,0.011789,0.004109,0.001884
822,24630.0,N3,N3,0.90468,0.076956,0.010504,0.006049,0.00181
823,24660.0,N3,N3,0.906242,0.077127,0.009782,0.005283,0.001566
824,24690.0,N3,N3,0.927851,0.057942,0.008401,0.004277,0.001529
825,24720.0,N2,N3,0.898062,0.076611,0.015245,0.007837,0.002245
826,24750.0,N3,N3,0.92095,0.059899,0.011396,0.006085,0.001669
827,24780.0,N3,N3,0.905372,0.077434,0.009914,0.005576,0.001704
828,24810.0,N3,N3,0.92503,0.060685,0.008965,0.003932,0.001388
829,24840.0,N3,N3,0.936415,0.049485,0.009083,0.003787,0.00123
830,24870.0,N3,N3,0.935577,0.049732,0.009044,0.004117,0.00153
831,24900.0,N3,N3,0.922658,0.06328,0.00874,0.004027,0.001294
832,24930.0,N3,N3,0.889616,0.087288,0.013059,0.007988,0.002049
833,24960.0,N3,N3,0.916718,0.065621,0.010514,0.005624,0.001524
834,24990.0,N3,N3,0.919545,0.065222,0.009583,0.00449,0.001161
835,25020.0,N3,N3,0.925406,0.062403,0.008087,0.002827,0.001277
836,25050.0,N3,N3,0.914649,0.068526,0.010744,0.00469,0.001392
837,25080.0,N3,N3,0.921214,0.061223,0.010544,0.005259,0.00176
838,25110.0,N3,N3,0.935421,0.05203,0.007774,0.003531,0.001245
839,25140.0,N3,N3,0.917614,0.064302,0.010549,0.005997,0.001539
840,25170.0,N3,N3,0.92882,0.056754,0.008588,0.004642,0.001195
841,25200.0,N3,N3,0.935483,0.050586,0.008029,0.004491,0.001411
842,25230.0,N3,N3,0.922568,0.062426,0.008356,0.004844,0.001805
843,25260.0,N3,N3,0.939396,0.050753,0.006698,0.002068,0.001085
844,25290.0,N3,N3,0.941502,0.046277,0.007492,0.003326,0.001403
845,25320.0,N3,N3,0.926811,0.057718,0.009617,0.004491,0.001363
846,25350.0,N3,N3,0.909874,0.072088,0.008915,0.007621,0.001502
847,25380.0,N3,N3,0.932942,0.053567,0.008946,0.003353,0.001192
848,25410.0,N3,N3,0.922713,0.057901,0.010655,0.007087,0.001644
849,25440.0,N3,N3,0.932416,0.053496,0.008897,0.003956,0.001235
850,25470.0,N3,N3,0.910837,0.072961,0.010001,0.004798,0.001402
851,25500.0,N3,N3,0.943008,0.047365,0.0063,0.002316,0.001011
852,25530.0,N3,N3,0.908801,0.072345,0.01151,0.005758,0.001586
853,25560.0,N3,N3,0.927293,0.058856,0.009277,0.003284,0.00129
854,25590.0,N3,N3,0.91291,0.073668,0.008264,0.003957,0.001201
855,25620.0,N3,N3,0.935741,0.049838,0.008954,0.003936,0.001531
856,25650.0,N3,N3,0.922382,0.059743,0.010106,0.006158,0.001611
857,25680.0,N3,N3,0.936451,0.046236,0.010396,0.003292,0.003625
858,25710.0,N2,N3,0.900975,0.074555,0.014109,0.00441,0.005951
859,25740.0,N2,N3,0.956616,0.019311,0.013821,0.003023,0.007229
860,25770.0,N2,N3,0.887963,0.031253,0.042599,0.009978,0.028207
861,25800.0,W,N3,0.866515,0.025637,0.048321,0.014368,0.045159
862,25830.0,W,N1,0.54925,0.076634,0.115858,0.06045,0.197807
863,25860.0,W,N3,0.748841,0.05648,0.059228,0.031931,0.103521
864,25890.0,W,N3,0.942905,0.016849,0.017214,0.00647,0.016561
865,25920.0,W,N3,0.963657,0.016573,0.010322,0.002573,0.006875
866,25950.0,W,N3,0.92343,0.033603,0.022587,0.005179,0.015201
867,25980.0,W,N1,0.752117,0.064586,0.122638,0.013576,0.047083
868,26010.0,W,N3,0.894702,0.034938,0.042491,0.005942,0.021927
869,26040.0,W,N3,0.8829,0.036208,0.052372,0.00642,0.022101
870,26070.0,N1,N3,0.736251,0.093464,0.108811,0.017704,0.04377
871,26100.0,N1,N3,0.809425,0.112351,0.035005,0.01605,0.027169
872,26130.0,N1,N3,0.758777,0.146819,0.042339,0.022823,0.029241
873,26160.0,N2,N3,0.838015,0.11893,0.023044,0.009134,0.010877
874,26190.0,N2,N3,0.912264,0.063955,0.01101,0.007128,0.005643
875,26220.0,N2,N3,0.914912,0.066214,0.009719,0.004898,0.004256
876,26250.0,N2,N3,0.83672,0.10155,0.028429,0.025262,0.008039
877,26280.0,N2,N3,0.849622,0.095782,0.026439,0.022477,0.00568
878,26310.0,N2,N3,0.824029,0.103347,0.034912,0.025507,0.012205
879,26340.0,N2,N3,0.882536,0.077189,0.021269,0.012157,0.006849
880,26370.0,N2,N3,0.809814,0.106431,0.036139,0.040893,0.006723
881,26400.0,N2,N3,0.800043,0.127332,0.028486,0.036325,0.007814
882,26430.0,N2,N3,0.684093,0.212942,0.04338,0.052199,0.007385
883,26460.0,N2,N3,0.767533,0.088082,0.076603,0.051956,0.015827
884,26490.0,N2,N3,0.873441,0.090298,0.018699,0.007231,0.010331
885,26520.0,N2,N3,0.773049,0.129483,0.036913,0.051235,0.00932
886,26550.0,N2,N3,0.879852,0.075464,0.023153,0.011886,0.009645
887,26580.0,N2,N3,0.731924,0.161444,0.051373,0.044995,0.010264
888,26610.0,N2,N3,0.866938,0.076035,0.038612,0.00959,0.008825
889,26640.0,N2,N3,0.828227,0.09255,0.035435,0.024197,0.019591
890,26670.0,N2,N3,0.864769,0.079068,0.026128,0.012228,0.017807
891,26700.0,N2,N3,0.85171,0.091938,0.023881,0.012821,0.01965
892,26730.0,N2,N3,0.85644,0.088997,0.024479,0.010807,0.019277
893,26760.0,N2,N3,0.686969,0.181565,0.051491,0.063317,0.016658
894,26790.0,N2,N3,0.797901,0.131192,0.036198,0.013876,0.020833
895,26820.0,N2,N1,0.830578,0.04887,0.050034,0.017743,0.052774
896,26850.0,W,N3,0.937408,0.024753,0.014223,0.007174,0.016442
897,26880.0,W,N1,0.836132,0.025849,0.058482,0.021287,0.05825
898,26910.0,W,N1,0.863623,0.024876,0.055789,0.012899,0.042814
899,26940.0,W,N1,0.865757,0.026679,0.068226,0.0079,0.031438
900,26970.0,N1,N1,0.496782,0.091858,0.317109,0.021224,0.073028
901,27000.0,N1,N1,0.686582,0.125856,0.084984,0.031765,0.070812
902,27030.0,N1,N3,0.730992,0.126016,0.063905,0.027006,0.052082
903,27060.0,N1,N1,0.463594,0.104207,0.322124,0.026448,0.083627
904,27090.0,N1,N3,0.700129,0.139415,0.083259,0.023629,0.053569
905,27120.0,N1,N3,0.694973,0.149484,0.070802,0.02698,0.057761
906,27150.0,N1,N3,0.775885,0.109436,0.046365,0.023106,0.045208
907,27180.0,N2,N3,0.829784,0.12299,0.022497,0.010728,0.014001
908,27210.0,N2,N3,0.797159,0.129061,0.027752,0.022341,0.023687
909,27240.0,N2,N3,0.773521,0.153687,0.034472,0.013509,0.02481
910,27270.0,N2,N3,0.779443,0.145215,0.035922,0.029564,0.009855
911,27300.0,N2,N3,0.760497,0.148253,0.038315,0.044621,0.008315
912,27330.0,N2,N3,0.751024,0.117131,0.041945,0.023531,0.06637
913,27360.0,N2,N3,0.714536,0.148382,0.051077,0.027595,0.05841
914,27390.0,W,N1,0.892086,0.021732,0.033699,0.011934,0.040549
915,27420.0,N1,N3,0.850977,0.033692,0.063006,0.013288,0.039035
916,27450.0,N1,N3,0.761114,0.128768,0.045874,0.020239,0.044004
917,27480.0,N1,N3,0.700696,0.131876,0.071453,0.027137,0.068838
918,27510.0,N2,N3,0.777539,0.152553,0.033588,0.014109,0.022211
919,27540.0,N2,N3,0.847407,0.090207,0.028865,0.012701,0.02082
920,27570.0,N2,N3,0.778947,0.130662,0.043122,0.020627,0.026641
921,27600.0,N2,N3,0.817666,0.099429,0.028489,0.040248,0.014168
922,27630.0,N2,N3,0.849946,0.087724,0.029712,0.024018,0.0086
923,27660.0,N2,N3,0.702366,0.18008,0.063211,0.04188,0.012464
924,27690.0,N2,N3,0.82194,0.106259,0.02812,0.027297,0.016385
925,27720.0,N2,N3,0.777017,0.126479,0.040524,0.047322,0.008658
926,27750.0,N2,N3,0.699609,0.185134,0.045274,0.061723,0.00826
927,27780.0,N2,N3,0.699092,0.151101,0.060254,0.080631,0.008922
928,27810.0,N1,N3,0.775857,0.084803,0.089688,0.0293,0.020352
929,27840.0,N2,N3,0.862235,0.08579,0.021347,0.012808,0.017821
930,27870.0,N2,N3,0.793379,0.126893,0.034478,0.029511,0.015739
931,27900.0,N2,N3,0.724523,0.170492,0.050074,0.042248,0.012662
932,27930.0,N2,N3,0.762018,0.117001,0.045543,0.066276,0.009161
933,27960.0,N2,N3,0.780559,0.1169,0.064892,0.025979,0.011669
934,27990.0,N2,N3,0.8377,0.084082,0.041871,0.028392,0.007955
935,28020.0,N2,N3,0.790176,0.110424,0.048927,0.036567,0.013906
936,28050.0,N2,N3,0.758787,0.134665,0.046127,0.048412,0.01201
937,28080.0,N2,N3,0.84488,0.086036,0.040687,0.017089,0.011308
938,28110.0,N2,N3,0.752616,0.156989,0.039888,0.036012,0.014495
939,28140.0,N2,N3,0.815774,0.095334,0.048103,0.032998,0.007792
940,28170.0,N2,N3,0.767196,0.130995,0.055388,0.039117,0.007302
941,28200.0,N2,N3,0.684352,0.181904,0.072305,0.0521,0.00934
942,28230.0,N2,N3,0.749947,0.151299,0.049791,0.0403,0.008664
943,28260.0,N2,N3,0.770452,0.14101,0.04464,0.037005,0.006894
944,28290.0,N2,N3,0.790792,0.123979,0.044604,0.030297,0.010328
945,28320.0,N2,N3,0.802615,0.129589,0.031588,0.031123,0.005085
946,28350.0,N2,N3,0.777827,0.113769,0.077739,0.017426,0.013239
947,28380.0,N2,N3,0.851417,0.105975,0.022475,0.011673,0.00846
948,28410.0,N2,N3,0.851567,0.077299,0.035273,0.012847,0.023014
949,28440.0,N2,N3,0.772842,0.147298,0.043951,0.025187,0.010722
950,28470.0,N2,N3,0.852164,0.080445,0.02788,0.031056,0.008454
951,28500.0,N2,N3,0.81543,0.137693,0.020728,0.022017,0.004133
952,28530.0,N2,N3,0.835573,0.104526,0.024965,0.029911,0.005025
953,28560.0,N2,N3,0.8207,0.116317,0.028836,0.019176,0.014971
954,28590.0,N2,N3,0.832625,0.111833,0.037784,0.00808,0.009678
955,28620.0,N2,N3,0.853039,0.087445,0.019811,0.031343,0.008363
956,28650.0,N2,N3,0.731801,0.189373,0.047843,0.015333,0.015649
957,28680.0,N2,N3,0.755517,0.145367,0.068672,0.013744,0.016699
958,28710.0,REM,N3,0.669397,0.143679,0.108892,0.024205,0.053827
959,28740.0,REM,N3,0.740839,0.156393,0.051127,0.015975,0.035666
960,28770.0,REM,N3,0.746586,0.153678,0.053598,0.021469,0.024669
961,28800.0,REM,N3,0.774699,0.155657,0.038586,0.012082,0.018976
962,28830.0,REM,N3,0.747958,0.165597,0.050587,0.012741,0.023116
963,28860.0,REM,N3,0.642515,0.160106,0.099366,0.030482,0.067531
964,28890.0,REM,N3,0.672922,0.216043,0.060336,0.020719,0.029979
965,28920.0,REM,N3,0.764426,0.152717,0.051945,0.011534,0.019378
966,28950.0,REM,N3,0.813263,0.119972,0.034478,0.010086,0.022201
967,28980.0,REM,N3,0.6133,0.188617,0.097456,0.030546,0.070081
968,29010.0,REM,N3,0.644606,0.226721,0.071501,0.015752,0.04142
969,29040.0,REM,N3,0.715232,0.176317,0.056264,0.016865,0.035323
970,29070.0,REM,N3,0.745675,0.154541,0.062679,0.01098,0.026125
971,29100.0,REM,N3,0.792907,0.12296,0.05515,0.010977,0.018007
972,29130.0,REM,N3,0.781888,0.145489,0.043194,0.010556,0.018873
973,29160.0,REM,N3,0.700366,0.191397,0.059041,0.019008,0.030188
974,29190.0,REM,N1,0.809402,0.119267,0.042487,0.010769,0.018074
975,29220.0,REM,N3,0.674867,0.220228,0.064746,0.015466,0.024694
976,29250.0,REM,N3,0.71801,0.197217,0.052393,0.012782,0.019598
977,29280.0,REM,N3,0.789174,0.1319,0.046848,0.010988,0.02109
978,29310.0,REM,N3,0.739767,0.161118,0.050586,0.015826,0.032703
979,29340.0,REM,N3,0.746801,0.176013,0.041832,0.012388,0.022966
980,29370.0,REM,N3,0.684589,0.193655,0.085742,0.01437,0.021644
981,29400.0,REM,N3,0.730071,0.174056,0.057326,0.013991,0.024557
982,29430.0,REM,N1,0.871228,0.080422,0.028061,0.007489,0.0128
983,29460.0,REM,N3,0.814938,0.120063,0.034287,0.011688,0.019024
984,29490.0,REM,N3,0.706735,0.202547,0.054656,0.013927,0.022134
985,29520.0,REM,N3,0.738234,0.147773,0.060588,0.018658,0.034748
986,29550.0,REM,N3,0.691234,0.177077,0.077771,0.017582,0.036337
987,29580.0,REM,N3,0.806243,0.112897,0.053352,0.011316,0.016192
988,29610.0,REM,N1,0.831,0.085952,0.062335,0.007747,0.012966
989,29640.0,REM,N3,0.776122,0.150056,0.042337,0.011669,0.019817
990,29670.0,REM,N3,0.710907,0.167229,0.068371,0.020139,0.033354
991,29700.0,REM,N3,0.752795,0.160293,0.054643,0.012359,0.019909
992,29730.0,REM,N3,0.791571,0.129439,0.045861,0.011164,0.021964
993,29760.0,REM,N3,0.776093,0.149553,0.039295,0.011989,0.02307
994,29790.0,REM,N3,0.880419,0.082232,0.022196,0.005177,0.009977
995,29820.0,REM,N3,0.833491,0.103734,0.033313,0.010988,0.018475
996,29850.0,REM,N3,0.81261,0.122846,0.037221,0.009191,0.018133
997,29880.0,REM,N3,0.773431,0.130244,0.054427,0.016664,0.025233
998,29910.0,REM,N3,0.690255,0.213919,0.054703,0.01314,0.027982
999,29940.0,REM,N3,0.805887,0.124599,0.043279,0.008833,0.017402
1000,29970.0,REM,N3,0.838365,0.110407,0.030508,0.007525,0.013194
1001,30000.0,REM,N1,0.815469,0.109461,0.042819,0.012259,0.019993
1002,30030.0,REM,N1,0.80683,0.123944,0.042332,0.009891,0.017003
1003,30060.0,REM,N3,0.865343,0.086739,0.026796,0.007727,0.013396
1004,30090.0,REM,N3,0.825007,0.117486,0.033248,0.007598,0.016662
1005,30120.0,REM,N3,0.771927,0.146609,0.042078,0.014291,0.025094
1006,30150.0,REM,N3,0.73879,0.172073,0.051654,0.014322,0.023161
1007,30180.0,REM,N3,0.730332,0.178167,0.049801,0.013373,0.028327
1008,30210.0,REM,N3,0.733585,0.189122,0.045367,0.011312,0.020614
1009,30240.0,REM,N3,0.720245,0.210765,0.042718,0.009307,0.016964
1010,30270.0,REM,N3,0.697729,0.16918,0.084786,0.016594,0.031711
1011,30300.0,REM,N3,0.743985,0.149072,0.062441,0.015544,0.028957
1012,30330.0,REM,N3,0.7749,0.172275,0.027957,0.008642,0.016226
1013,30360.0,N2,N3,0.742313,0.156974,0.062168,0.015656,0.022889
1014,30390.0,N2,N3,0.822004,0.126341,0.029382,0.007647,0.014626
1015,30420.0,N2,N3,0.617111,0.320497,0.027329,0.018857,0.016206
1016,30450.0,N2,N3,0.698303,0.183456,0.06601,0.036031,0.0162
1017,30480.0,N2,N3,0.817995,0.121594,0.028006,0.025711,0.006694
1018,30510.0,N2,N3,0.744778,0.152163,0.042168,0.047683,0.013208
1019,30540.0,N2,N3,0.661326,0.244455,0.055092,0.024594,0.014532
1020,30570.0,N2,N3,0.785184,0.130857,0.03768,0.036561,0.009719
1021,30600.0,N2,N3,0.755438,0.136865,0.05765,0.017873,0.032175
1022,30630.0,N2,N3,0.814013,0.096302,0.035531,0.040462,0.013692
1023,30660.0,N2,N3,0.751122,0.14096,0.054439,0.01956,0.033918
1024,30690.0,N2,N3,0.672803,0.151089,0.089978,0.054322,0.031809
1025,30720.0,N2,N3,0.839641,0.10136,0.029489,0.012511,0.016999
1026,30750.0,N2,N3,0.6995,0.157625,0.075798,0.046424,0.020653
1027,30780.0,N2,N3,0.671032,0.132495,0.072876,0.110685,0.012912
1028,30810.0,N2,N3,0.636294,0.175094,0.071614,0.103817,0.013181
1029,30840.0,N2,N3,0.710464,0.170857,0.052849,0.056877,0.008952
1030,30870.0,N2,N3,0.652698,0.21023,0.070951,0.055387,0.010732
1031,30900.0,N2,N3,0.751155,0.120109,0.059716,0.059491,0.009529
1032,30930.0,N2,N3,0.718438,0.162575,0.046286,0.063937,0.008763
1033,30960.0,N2,N3,0.765094,0.158808,0.043551,0.024254,0.008293
1034,30990.0,N2,N3,0.779401,0.137905,0.046311,0.028884,0.007499
1035,31020.0,N2,N3,0.752205,0.153459,0.047037,0.039155,0.008144
1036,31050.0,N2,N3,0.799464,0.117341,0.035625,0.041564,0.006006
1037,31080.0,N2,N3,0.79862,0.143467,0.033062,0.019559,0.005292
1038,31110.0,N2,N3,0.780439,0.149913,0.035182,0.028177,0.006289
1039,31140.0,N2,N3,0.877216,0.082572,0.020735,0.01627,0.003207
1040,31170.0,N2,N3,0.776313,0.160748,0.029767,0.027119,0.006053
1041,31200.0,N2,N3,0.849912,0.103492,0.023232,0.019567,0.003797
1042,31230.0,N2,N3,0.817491,0.133995,0.024941,0.018544,0.00503
1043,31260.0,N2,N3,0.859308,0.102239,0.02002,0.014756,0.003678
1044,31290.0,N2,N3,0.871732,0.095394,0.02029,0.009583,0.003
1045,31320.0,N2,N3,0.831624,0.117868,0.026871,0.019676,0.003961
1046,31350.0,N2,N3,0.870956,0.093442,0.017209,0.014693,0.0037
1047,31380.0,N2,N3,0.886285,0.081595,0.015656,0.013201,0.003263
1048,31410.0,N2,N3,0.85943,0.105854,0.020309,0.011046,0.003362
1049,31440.0,N2,N3,0.884822,0.086161,0.01623,0.009867,0.002921
1050,31470.0,N3,N3,0.908517,0.073097,0.011423,0.004823,0.00214
1051,31500.0,N2,N3,0.86026,0.108007,0.016302,0.012285,0.003145
1052,31530.0,N3,N3,0.912415,0.06698,0.012273,0.006248,0.002085
1053,31560.0,N3,N3,0.917179,0.066027,0.01094,0.003464,0.00239
1054,31590.0,N3,N3,0.907523,0.069455,0.015224,0.005702,0.002095
1055,31620.0,N2,N3,0.85196,0.111614,0.019058,0.014158,0.00321
1056,31650.0,N3,N3,0.923111,0.054088,0.011592,0.009237,0.001972
1057,31680.0,N3,N3,0.904782,0.074098,0.012146,0.006648,0.002325
1058,31710.0,N3,N3,0.930997,0.050828,0.010652,0.00561,0.001913
1059,31740.0,N3,N3,0.908185,0.070004,0.010877,0.008525,0.002409
1060,31770.0,N3,N3,0.90632,0.068506,0.0132,0.009327,0.002647
1061,31800.0,N3,N3,0.923413,0.057919,0.010438,0.006372,0.001858
1062,31830.0,N3,N3,0.932546,0.052291,0.008701,0.00482,0.001642
1063,31860.0,N3,N3,0.90122,0.080551,0.011533,0.004831,0.001865
1064,31890.0,N3,N3,0.910018,0.068358,0.011989,0.007079,0.002556
1065,31920.0,N3,N3,0.924065,0.061236,0.008634,0.004104,0.00196
1066,31950.0,N3,N3,0.931496,0.051676,0.009567,0.005781,0.001479
1067,31980.0,N3,N3,0.924754,0.059221,0.010077,0.004099,0.001849
1068,32010.0,N3,N3,0.918333,0.063148,0.011488,0.005216,0.001816
1069,32040.0,N3,N3,0.932791,0.054536,0.006448,0.004579,0.001646
1070,32070.0,N3,N3,0.920781,0.061415,0.010545,0.005441,0.001819
1071,32100.0,N3,N3,0.925402,0.056652,0.009447,0.00661,0.001889
1072,32130.0,N3,N3,0.901685,0.077083,0.012544,0.006668,0.00202
1073,32160.0,N3,N3,0.930756,0.051719,0.009588,0.006133,0.001804
1074,32190.0,N3,N3,0.909747,0.06987,0.011192,0.007189,0.002002
1075,32220.0,N3,N3,0.925415,0.058167,0.008769,0.005981,0.001668
1076,32250.0,N3,N3,0.91122,0.068707,0.011972,0.005687,0.002414
1077,32280.0,N3,N3,0.931655,0.051322,0.009082,0.005639,0.002302
1078,32310.0,N3,N3,0.911419,0.066904,0.011351,0.008229,0.002098
1079,32340.0,N3,N3,0.921677,0.06067,0.010632,0.005136,0.001885
1080,32370.0,N2,N1,0.929758,0.024086,0.014951,0.007748,0.023458
1081,32400.0,N2,N3,0.882244,0.08414,0.021375,0.004858,0.007383
1082,32430.0,N2,N3,0.896425,0.074452,0.017017,0.005014,0.007092
1083,32460.0,N2,N3,0.876188,0.088893,0.018852,0.006762,0.009305
1084,32490.0,N2,N3,0.879924,0.083396,0.018812,0.008668,0.0092
1085,32520.0,N2,N3,0.892815,0.075737,0.021046,0.005451,0.00495
1086,32550.0,N2,N3,0.905561,0.068139,0.014913,0.005165,0.006221
1087,32580.0,N2,N3,0.886756,0.070179,0.021549,0.015207,0.00631
1088,32610.0,N2,N3,0.874347,0.088776,0.021533,0.006844,0.008499
1089,32640.0,N2,N3,0.898002,0.066997,0.017113,0.011605,0.006283
1090,32670.0,N2,N3,0.861627,0.079842,0.033032,0.017249,0.008249
1091,32700.0,N2,N3,0.869068,0.074286,0.030475,0.016725,0.009446
1092,32730.0,N2,N3,0.885174,0.063933,0.026207,0.0175,0.007186
1093,32760.0,N2,N3,0.871469,0.083595,0.027465,0.011213,0.006258
1094,32790.0,N2,N3,0.891927,0.071235,0.017219,0.009126,0.010492
1095,32820.0,N2,N3,0.742118,0.146684,0.048455,0.049285,0.013457
1096,32850.0,N2,N3,0.870928,0.076149,0.030189,0.016535,0.006199
1097,32880.0,N2,N3,0.875638,0.07095,0.026988,0.018742,0.007682
1098,32910.0,N2,N3,0.827682,0.096859,0.047607,0.018351,0.009502
1099,32940.0,N2,N3,0.893001,0.067419,0.019661,0.012943,0.006976
1100,32970.0,N2,N3,0.864794,0.059056,0.037746,0.022679,0.015725
1101,33000.0,N2,N3,0.899508,0.064433,0.015449,0.014027,0.006584
1102,33030.0,N2,N3,0.828338,0.095583,0.028995,0.040147,0.006937
1103,33060.0,N2,N3,0.903168,0.053474,0.017057,0.008982,0.017318
1104,33090.0,N2,N3,0.872601,0.075512,0.021008,0.017107,0.013771
1105,33120.0,N2,N3,0.898493,0.058265,0.024377,0.011848,0.007017
1106,33150.0,N1,N1,0.927396,0.021422,0.022603,0.005947,0.022631
1107,33180.0,N2,N3,0.831581,0.109954,0.031676,0.012325,0.014465
1108,33210.0,N2,N3,0.798448,0.110018,0.035821,0.046894,0.00882
1109,33240.0,N2,N3,0.884512,0.062394,0.027071,0.016464,0.009558
1110,33270.0,N2,N3,0.84438,0.090014,0.032633,0.018629,0.014344
1111,33300.0,N2,N3,0.812939,0.106433,0.037195,0.035639,0.007795
1112,33330.0,N2,N3,0.782704,0.145596,0.031633,0.028112,0.011955
1113,33360.0,N2,N3,0.862292,0.091114,0.023508,0.016741,0.006345
1114,33390.0,N2,N3,0.801738,0.104512,0.035701,0.049993,0.008056
1115,33420.0,N2,N3,0.844529,0.092638,0.026422,0.029703,0.006708
1116,33450.0,N2,N3,0.889428,0.057884,0.028105,0.014673,0.009909
1117,33480.0,N2,N3,0.872586,0.080601,0.022308,0.014977,0.009527
1118,33510.0,N2,N3,0.789354,0.107789,0.045082,0.04829,0.009485
1119,33540.0,N2,N3,0.810761,0.116994,0.032632,0.031229,0.008385
1120,33570.0,N2,N3,0.836102,0.083407,0.042621,0.028839,0.009032
1121,33600.0,N2,N3,0.861357,0.096057,0.023964,0.010663,0.00796
1122,33630.0,N2,N3,0.895662,0.059431,0.018257,0.022101,0.00455
1123,33660.0,N2,N3,0.779843,0.132119,0.0359,0.043143,0.008995
1124,33690.0,N2,N3,0.890666,0.060963,0.031173,0.009238,0.007959
1125,33720.0,N2,N3,0.895995,0.070988,0.015366,0.010726,0.006925
1126,33750.0,N2,N3,0.833959,0.089655,0.029774,0.027061,0.019551
1127,33780.0,N2,N3,0.869819,0.068674,0.032519,0.020779,0.008209
1128,33810.0,N2,N3,0.853371,0.094812,0.028464,0.013729,0.009624
1129,33840.0,N2,N3,0.766133,0.112382,0.044348,0.064358,0.012779
1130,33870.0,N2,N3,0.871232,0.087605,0.02377,0.010516,0.006878
1131,33900.0,N2,N3,0.813897,0.107069,0.033284,0.038808,0.006941
1132,33930.0,N2,N3,0.762652,0.155476,0.03688,0.036765,0.008228
1133,33960.0,N2,N3,0.783385,0.130207,0.03522,0.044796,0.006393
1134,33990.0,N2,N3,0.889964,0.068883,0.018753,0.0182,0.0042
1135,34020.0,N2,N3,0.9049,0.05015,0.022364,0.008992,0.013594
1136,34050.0,N2,N3,0.8822,0.076181,0.02375,0.011666,0.006203
1137,34080.0,N2,N3,0.829097,0.090842,0.041136,0.027916,0.011009
1138,34110.0,N2,N3,0.870106,0.078288,0.030777,0.012461,0.008369
1139,34140.0,N2,N3,0.783317,0.121328,0.044444,0.040579,0.010332
1140,34170.0,N2,N3,0.756728,0.121219,0.052231,0.060552,0.00927
1141,34200.0,N2,N3,0.786242,0.125089,0.046991,0.029395,0.012283
1142,34230.0,N1,N3,0.855625,0.058611,0.029663,0.012985,0.043114
1143,34260.0,N2,N3,0.88395,0.066997,0.021713,0.017514,0.009826
1144,34290.0,N2,N3,0.853705,0.077816,0.03515,0.015394,0.017936
1145,34320.0,N2,N3,0.807836,0.108989,0.031585,0.041489,0.010101
1146,34350.0,N2,N3,0.846368,0.085394,0.037509,0.015843,0.014886
1147,34380.0,N2,N3,0.695879,0.187173,0.043612,0.061149,0.012187
1148,34410.0,N2,N3,0.849798,0.088874,0.040109,0.013666,0.007553
1149,34440.0,N2,N3,0.813385,0.096759,0.029505,0.04874,0.01161
1150,34470.0,N2,N3,0.852806,0.094108,0.024331,0.022801,0.005954
1151,34500.0,N2,N3,0.890959,0.064616,0.020816,0.008223,0.015386
1152,34530.0,N2,N3,0.78816,0.105009,0.037979,0.060244,0.008608
1153,34560.0,N2,N3,0.778921,0.133204,0.041163,0.037053,0.009659
1154,34590.0,N2,N3,0.814264,0.101112,0.044289,0.0268,0.013534
1155,34620.0,N2,N3,0.81856,0.11143,0.044813,0.011713,0.013483
1156,34650.0,N2,N3,0.726383,0.163613,0.04297,0.053711,0.013322
1157,34680.0,N2,N3,0.832094,0.104765,0.026466,0.024517,0.012158
1158,34710.0,N2,N3,0.840696,0.099246,0.030334,0.021716,0.008009
1159,34740.0,N2,N3,0.819477,0.091208,0.04406,0.033135,0.01212
1160,34770.0,N2,N3,0.802746,0.095003,0.041807,0.050386,0.010058
1161,34800.0,N2,N3,0.765147,0.12408,0.043211,0.058435,0.009127
1162,34830.0,N2,N3,0.843196,0.095048,0.028093,0.021004,0.012659
1163,34860.0,N2,N3,0.849126,0.095881,0.025563,0.019002,0.010428
1164,34890.0,N2,N3,0.819302,0.091959,0.034761,0.047089,0.006889
1165,34920.0,N2,N3,0.802821,0.134429,0.02694,0.030713,0.005096
1166,34950.0,N2,N3,0.888072,0.066663,0.02186,0.016955,0.00645
1167,34980.0,N2,N3,0.894067,0.068447,0.022236,0.006133,0.009116
1168,35010.0,N2,N3,0.837904,0.080492,0.036012,0.033299,0.012292
1169,35040.0,N2,N3,0.77717,0.138121,0.030558,0.047125,0.007026
1170,35070.0,N2,N3,0.856265,0.077822,0.033136,0.024946,0.007832
1171,35100.0,N2,N3,0.848407,0.094742,0.027801,0.011456,0.017595
1172,35130.0,N2,N3,0.77643,0.120598,0.040385,0.051669,0.010918
1173,35160.0,N2,N3,0.80939,0.13265,0.02444,0.026825,0.006694
1174,35190.0,N2,N3,0.861973,0.077424,0.032085,0.020493,0.008025
1175,35220.0,N2,N3,0.857247,0.091872,0.024948,0.015484,0.010448
1176,35250.0,N2,N3,0.848373,0.093308,0.035003,0.015459,0.007857
1177,35280.0,N2,N3,0.921024,0.048664,0.018863,0.005786,0.005663
1178,35310.0,N2,N3,0.857241,0.070702,0.034596,0.025406,0.012055
1179,35340.0,N2,N3,0.849538,0.096167,0.026775,0.009949,0.017572
1180,35370.0,N2,N3,0.834364,0.093738,0.03496,0.025456,0.011483
1181,35400.0,N2,N3,0.846591,0.084971,0.032345,0.017949,0.018144
1182,35430.0,N2,N3,0.88669,0.061694,0.029611,0.014803,0.007201
1183,35460.0,N2,N3,0.81024,0.11989,0.027352,0.034616,0.007902
1184,35490.0,N2,N3,0.824544,0.087521,0.044364,0.02707,0.016501
1185,35520.0,N2,N3,0.774456,0.14341,0.03457,0.03909,0.008474
1186,35550.0,N2,N3,0.803628,0.099674,0.037258,0.051081,0.008358
1187,35580.0,N2,N3,0.830816,0.086901,0.037534,0.032522,0.012227
1188,35610.0,N2,N3,0.842886,0.092144,0.02892,0.028612,0.007438
1189,35640.0,N1,N3,0.863833,0.031977,0.042371,0.017924,0.043895
1190,35670.0,W,N3,0.828938,0.034773,0.07943,0.012792,0.044067
1191,35700.0,W,N3,0.923503,0.017187,0.031181,0.006209,0.02192
1192,35730.0,N1,N3,0.762479,0.126964,0.049969,0.021334,0.039254
1193,35760.0,N1,N3,0.810309,0.053246,0.085947,0.017085,0.033413
1194,35790.0,N1,N1,0.677984,0.130189,0.102119,0.027478,0.062231
1195,35820.0,W,N3,0.93008,0.019832,0.034519,0.003895,0.011673
1196,35850.0,W,N1,0.538481,0.068769,0.331605,0.016837,0.044309
1197,35880.0,W,N3,0.840351,0.029975,0.09213,0.009815,0.027729
1198,35910.0,W,N3,0.605372,0.074321,0.275593,0.013495,0.031219
1199,35940.0,N1,N3,0.563876,0.121541,0.197137,0.037697,0.079748
1200,35970.0,N1,N3,0.609044,0.106345,0.19453,0.027349,0.062732
1201,36000.0,N1,N3,0.531291,0.156052,0.196941,0.035938,0.079778
1202,36030.0,N1,N3,0.684861,0.138967,0.092259,0.027019,0.056894
1203,36060.0,N1,N3,0.822173,0.039515,0.090869,0.012034,0.035408
1204,36090.0,N1,N3,0.739141,0.142504,0.052107,0.02411,0.042138
1205,36120.0,N1,N3,0.860447,0.091042,0.026274,0.008331,0.013905
1206,36150.0,N2,N3,0.820334,0.113827,0.030419,0.020274,0.015147
1207,36180.0,N2,N3,0.865447,0.091531,0.024927,0.011227,0.006868
1208,36210.0,N2,N3,0.850064,0.104968,0.017948,0.015371,0.01165
1209,36240.0,N2,N3,0.779401,0.116494,0.043776,0.051621,0.008708
1210,36270.0,N2,N3,0.783285,0.155199,0.024773,0.023227,0.013516
1211,36300.0,N2,N3,0.831369,0.094077,0.035427,0.017106,0.022022
1212,36330.0,N2,N3,0.829821,0.101452,0.031133,0.021656,0.015938
1213,36360.0,N2,N3,0.752387,0.153417,0.043219,0.032963,0.018014
1214,36390.0,N2,N3,0.851815,0.09421,0.022599,0.023219,0.008157
1215,36420.0,N2,N3,0.773286,0.127894,0.036752,0.052591,0.009477
1216,36450.0,N2,N3,0.797049,0.088468,0.035112,0.072587,0.006784
1217,36480.0,N2,N3,0.723783,0.168671,0.064223,0.033058,0.010264
1218,36510.0,N2,N1,0.88211,0.026897,0.044674,0.012157,0.034162
1219,36540.0,W,N1,0.854507,0.033397,0.06304,0.011647,0.037408
1220,36570.0,W,N3,0.893826,0.018458,0.057366,0.007763,0.022586
1221,36600.0,W,N1,0.570079,0.057996,0.30475,0.016201,0.050974
1222,36630.0,N1,N1,0.480271,0.135709,0.284291,0.025333,0.074397
1223,36660.0,N1,N1,0.459389,0.08872,0.363206,0.02209,0.066595
1224,36690.0,W,N1,0.800397,0.035119,0.110288,0.015464,0.038732
1225,36720.0,W,W,0.433888,0.083917,0.407035,0.019922,0.055239
1226,36750.0,W,N1,0.493215,0.132124,0.282632,0.024498,0.067531
1227,36780.0,N1,N1,0.528245,0.086452,0.219651,0.055451,0.110201
1228,36810.0,W,N3,0.709524,0.056589,0.193613,0.01017,0.030104
1229,36840.0,N1,N3,0.693646,0.138542,0.095788,0.024296,0.047728
1230,36870.0,N1,N3,0.696937,0.159952,0.064212,0.02589,0.05301
1231,36900.0,W,W,0.407393,0.088119,0.420584,0.022587,0.061317
1232,36930.0,W,N3,0.743091,0.045118,0.152177,0.018848,0.040765
1233,36960.0,W,N1,0.775263,0.034724,0.105099,0.02271,0.062203
1234,36990.0,W,N3,0.538327,0.107495,0.285081,0.01904,0.050057
1235,37020.0,N1,N3,0.70649,0.130733,0.08999,0.025203,0.047585
1236,37050.0,N1,N3,0.801539,0.132177,0.036411,0.011293,0.01858
1237,37080.0,N1,N3,0.817495,0.108536,0.035968,0.01453,0.023471
1238,37110.0,N1,N3,0.793634,0.13744,0.035269,0.01184,0.021816
1239,37140.0,N2,N3,0.8025,0.126952,0.031151,0.030796,0.0086
1240,37170.0,N2,N3,0.78762,0.139228,0.027398,0.036887,0.008867
1241,37200.0,N2,N3,0.877147,0.069873,0.02933,0.014205,0.009445
1242,37230.0,N2,N3,0.798124,0.118221,0.036499,0.036046,0.01111
1243,37260.0,N2,N3,0.810681,0.098522,0.036667,0.044504,0.009626
1244,37290.0,N2,N3,0.883701,0.066121,0.024553,0.018392,0.007233
1245,37320.0,N2,N3,0.757784,0.099544,0.050956,0.0798,0.011916
1246,37350.0,N2,N3,0.869327,0.085835,0.021542,0.010303,0.012993
1247,37380.0,N2,N3,0.681109,0.164817,0.054729,0.085969,0.013377
1248,37410.0,N2,N3,0.813314,0.093111,0.042563,0.039283,0.01173
1249,37440.0,N2,N3,0.845118,0.091922,0.029245,0.027071,0.006643
1250,37470.0,N2,N3,0.813463,0.104693,0.039114,0.035341,0.007389
1251,37500.0,N2,N3,0.791655,0.123762,0.051828,0.024553,0.008202
1252,37530.0,N2,N3,0.745221,0.146659,0.0458,0.050233,0.012087
1253,37560.0,N2,N3,0.747182,0.129866,0.038779,0.069377,0.014797
1254,37590.0,N2,N3,0.835482,0.086913,0.04665,0.018693,0.012263
1255,37620.0,N2,N3,0.688199,0.158596,0.060034,0.080042,0.01313
1256,37650.0,N2,N3,0.657696,0.179247,0.055979,0.096829,0.010248
1257,37680.0,N2,N3,0.822262,0.105861,0.04284,0.020939,0.008098
1258,37710.0,N2,N3,0.832672,0.11097,0.029857,0.017246,0.009255
1259,37740.0,N2,N3,0.720469,0.161227,0.05121,0.053558,0.013537
1260,37770.0,N2,N3,0.783824,0.08803,0.058548,0.052263,0.017336
1261,37800.0,N2,N3,0.877333,0.060996,0.032733,0.013348,0.01559
1262,37830.0,N2,N3,0.824283,0.098741,0.044561,0.014489,0.017925
1263,37860.0,N2,N3,0.862577,0.071915,0.029833,0.020078,0.015597
1264,37890.0,N1,N3,0.670247,0.091116,0.156937,0.021492,0.060208
1265,37920.0,N1,N3,0.82884,0.105119,0.039054,0.013172,0.013816
1266,37950.0,N2,N3,0.726648,0.147955,0.049292,0.066748,0.009356
1267,37980.0,N2,N3,0.721078,0.1567,0.050783,0.060822,0.010617
1268,38010.0,N2,N3,0.82587,0.092997,0.043305,0.028165,0.009663
1269,38040.0,N2,N3,0.73575,0.152513,0.053912,0.041423,0.016401
1270,38070.0,N2,N3,0.769149,0.135745,0.046168,0.037336,0.011603
1271,38100.0,N2,N3,0.746544,0.127364,0.059697,0.057854,0.008541
1272,38130.0,N2,N3,0.841093,0.097172,0.028773,0.022081,0.010881
1273,38160.0,N2,N3,0.664483,0.191676,0.067421,0.062172,0.014248
1274,38190.0,N2,N3,0.768059,0.138849,0.046334,0.040555,0.006203
1275,38220.0,N2,N3,0.741493,0.166418,0.04415,0.041012,0.006927
1276,38250.0,N2,N3,0.690381,0.185755,0.074049,0.040741,0.009074
1277,38280.0,N2,N3,0.840242,0.115445,0.027053,0.010742,0.006518
1278,38310.0,N2,N3,0.789006,0.133582,0.042236,0.028473,0.006703
1279,38340.0,N2,N3,0.760041,0.15378,0.044897,0.034659,0.006624
1280,38370.0,N2,N3,0.733087,0.158766,0.064907,0.034088,0.009152
1281,38400.0,N2,N3,0.81892,0.120138,0.037754,0.014981,0.008207
1282,38430.0,N2,N3,0.833418,0.123155,0.026585,0.009967,0.006875
1283,38460.0,N2,N3,0.81869,0.131424,0.030048,0.011991,0.007846
1284,38490.0,N2,N3,0.759461,0.149348,0.045752,0.034522,0.010917
1285,38520.0,N2,N3,0.807861,0.136293,0.037521,0.008017,0.010309
1286,38550.0,REM,N3,0.780944,0.128434,0.054316,0.016367,0.019939
1287,38580.0,REM,N3,0.797842,0.122005,0.044871,0.015088,0.020195
1288,38610.0,REM,N3,0.673006,0.196009,0.079451,0.022017,0.029517
1289,38640.0,REM,N3,0.691779,0.223355,0.045548,0.025051,0.014267
1290,38670.0,REM,N3,0.772919,0.164101,0.035926,0.011952,0.015102
1291,38700.0,REM,N3,0.766359,0.157405,0.053598,0.008499,0.014138
1292,38730.0,REM,N3,0.865672,0.084304,0.029545,0.007524,0.012955
1293,38760.0,REM,N3,0.899577,0.05628,0.027811,0.006046,0.010285
1294,38790.0,REM,N3,0.75317,0.143336,0.063122,0.013931,0.026441
1295,38820.0,REM,N3,0.758163,0.155809,0.052465,0.011806,0.021756
1296,38850.0,REM,N3,0.777608,0.126987,0.067661,0.009893,0.017851
1297,38880.0,REM,N1,0.859879,0.080349,0.034898,0.009687,0.015188
1298,38910.0,REM,N3,0.797053,0.12359,0.048534,0.010979,0.019844
1299,38940.0,REM,N3,0.776073,0.135784,0.053189,0.011799,0.023155
1300,38970.0,REM,N3,0.763059,0.133212,0.061579,0.015669,0.026482
1301,39000.0,REM,N3,0.737435,0.18752,0.042728,0.012626,0.019691
1302,39030.0,REM,N1,0.791139,0.137948,0.042701,0.010357,0.017855
1303,39060.0,REM,N3,0.805062,0.135194,0.034815,0.010562,0.014367
1304,39090.0,REM,N3,0.769243,0.149613,0.045308,0.013615,0.022221
1305,39120.0,REM,N1,0.697548,0.19581,0.063884,0.015198,0.02756
1306,39150.0,REM,N1,0.76158,0.15126,0.051741,0.013076,0.022344
1307,39180.0,REM,N3,0.837443,0.106521,0.030217,0.009883,0.015936
1308,39210.0,REM,N3,0.845971,0.095359,0.032654,0.010265,0.01575
1309,39240.0,REM,N3,0.813062,0.119262,0.038642,0.011558,0.017476
1310,39270.0,REM,N1,0.69833,0.208912,0.053349,0.015353,0.024057
1311,39300.0,REM,N3,0.721335,0.199144,0.045937,0.012848,0.020736
1312,39330.0,REM,N1,0.879626,0.07474,0.026705,0.006615,0.012315
1313,39360.0,REM,N1,0.854272,0.092498,0.028367,0.008315,0.016548
1314,39390.0,REM,N3,0.837053,0.099934,0.037726,0.010316,0.014971
1315,39420.0,REM,N1,0.825223,0.116,0.034658,0.008681,0.015438
1316,39450.0,REM,N3,0.847311,0.102453,0.027189,0.008693,0.014354
1317,39480.0,REM,N3,0.7906,0.141508,0.039018,0.010239,0.018635
1318,39510.0,REM,N3,0.681367,0.212507,0.054665,0.015746,0.035715
1319,39540.0,REM,N1,0.846793,0.104895,0.030093,0.007551,0.010668
1320,39570.0,REM,N1,0.867271,0.088186,0.027507,0.006714,0.010322
1321,39600.0,REM,N3,0.814018,0.108512,0.038848,0.012212,0.02641
1322,39630.0,REM,N3,0.698545,0.202793,0.052603,0.01546,0.0306
1323,39660.0,REM,N3,0.639145,0.194253,0.104065,0.021142,0.041395
1324,39690.0,REM,N3,0.698214,0.227659,0.03885,0.0134,0.021877
1325,39720.0,N2,N3,0.764296,0.180066,0.033399,0.010203,0.012035
1326,39750.0,N2,N3,0.722658,0.196298,0.049877,0.013733,0.017433
1327,39780.0,N2,N3,0.755541,0.170704,0.039106,0.012889,0.021759
1328,39810.0,N2,N3,0.739919,0.201082,0.032975,0.011072,0.014952
1329,39840.0,N2,N3,0.672073,0.277522,0.027319,0.008854,0.014232
1330,39870.0,N2,N3,0.830122,0.121713,0.025294,0.009887,0.012984
1331,39900.0,N2,N3,0.718361,0.225007,0.030345,0.009477,0.01681
1332,39930.0,N2,N3,0.786957,0.149837,0.038134,0.012958,0.012113
1333,39960.0,N2,N3,0.744923,0.197163,0.030081,0.011873,0.01596
1334,39990.0,N2,N3,0.772443,0.142427,0.039093,0.031899,0.014138
1335,40020.0,N2,N3,0.800333,0.153708,0.027381,0.008403,0.010176
1336,40050.0,N2,N3,0.799033,0.128831,0.037123,0.022577,0.012437
1337,40080.0,N2,N3,0.696865,0.194255,0.038365,0.05458,0.015934
1338,40110.0,N2,N3,0.71874,0.223266,0.032827,0.014264,0.010902
1339,40140.0,N2,N3,0.663757,0.181294,0.079277,0.063302,0.01237
1340,40170.0,N2,N3,0.641774,0.234621,0.059554,0.050886,0.013165
1341,40200.0,N2,N3,0.717464,0.170357,0.069529,0.031498,0.011152
1342,40230.0,N2,N3,0.676542,0.214908,0.048096,0.049707,0.010747
1343,40260.0,N2,N3,0.719507,0.180096,0.056949,0.034819,0.00863
1344,40290.0,N2,N3,0.799034,0.1279,0.038535,0.022599,0.011932
1345,40320.0,N2,N3,0.675957,0.184697,0.067062,0.05799,0.014294
1346,40350.0,N2,N3,0.627157,0.197456,0.08574,0.078357,0.01129
1347,40380.0,N2,N3,0.686749,0.171111,0.056153,0.077022,0.008966
1348,40410.0,N2,N3,0.764942,0.146429,0.044483,0.034706,0.009441
1349,40440.0,N2,N3,0.643056,0.210571,0.078969,0.055781,0.011623
1350,40470.0,N2,N3,0.677588,0.186178,0.056533,0.069951,0.00975
1351,40500.0,N2,N3,0.754453,0.160264,0.044557,0.032851,0.007876
1352,40530.0,N2,N3,0.702071,0.189532,0.060713,0.04011,0.007574
1353,40560.0,N2,N3,0.740904,0.161634,0.044148,0.045972,0.007342
1354,40590.0,N2,N3,0.737537,0.177132,0.040555,0.038194,0.006582
1355,40620.0,N2,N3,0.736194,0.188079,0.039512,0.029398,0.006816
1356,40650.0,N2,N3,0.793185,0.141148,0.033514,0.025787,0.006367
1357,40680.0,N2,N3,0.823053,0.128172,0.026826,0.015812,0.006136
1358,40710.0,N2,N3,0.803322,0.133722,0.035366,0.022363,0.005227
1359,40740.0,N2,N3,0.87431,0.090915,0.017651,0.01356,0.003563
1360,40770.0,N2,N3,0.840992,0.116769,0.024214,0.014094,0.003931
1361,40800.0,N2,N3,0.835607,0.111999,0.026048,0.022768,0.003579
1362,40830.0,N2,N3,0.825699,0.124067,0.02832,0.016556,0.005359
1363,40860.0,N2,N3,0.7708,0.159014,0.037018,0.027015,0.006152
1364,40890.0,N2,N3,0.848825,0.101174,0.023882,0.021613,0.004506
1365,40920.0,N2,N3,0.840521,0.118871,0.01896,0.018788,0.00286
1366,40950.0,N2,N3,0.853573,0.104279,0.020222,0.018321,0.003606
1367,40980.0,N2,N3,0.854874,0.107612,0.01976,0.014184,0.00357
1368,41010.0,N2,N3,0.859067,0.102877,0.018847,0.015803,0.003406
1369,41040.0,N3,N3,0.870284,0.099961,0.017791,0.009328,0.002636
1370,41070.0,N3,N3,0.879187,0.089377,0.016678,0.012,0.002758
1371,41100.0,N2,N3,0.864237,0.106987,0.018202,0.007288,0.003286
1372,41130.0,N2,N3,0.869011,0.090479,0.01905,0.017967,0.003493
1373,41160.0,N2,N3,0.888045,0.076077,0.015561,0.017191,0.003126
1374,41190.0,N2,N3,0.856444,0.104505,0.017054,0.019345,0.002652
1375,41220.0,N3,N3,0.892324,0.083146,0.014262,0.007615,0.002653
1376,41250.0,N2,N3,0.870456,0.099403,0.017468,0.009017,0.003656
1377,41280.0,N3,N3,0.914236,0.063613,0.011583,0.008293,0.002274
1378,41310.0,N3,N3,0.900385,0.072417,0.015208,0.009639,0.002351
1379,41340.0,N3,N3,0.922115,0.058341,0.011507,0.005203,0.002834
1380,41370.0,N2,N3,0.870495,0.096839,0.019328,0.01072,0.002618
1381,41400.0,N2,N3,0.892348,0.08095,0.014982,0.009293,0.002427
1382,41430.0,N3,N3,0.917386,0.061199,0.012344,0.006995,0.002077
1383,41460.0,N3,N3,0.879473,0.094012,0.015433,0.008673,0.002409
1384,41490.0,N2,N3,0.893818,0.084728,0.012959,0.006225,0.002269
1385,41520.0,N2,N3,0.887742,0.087394,0.015251,0.007481,0.002132
1386,41550.0,N2,N3,0.894632,0.078123,0.014832,0.009578,0.002835
1387,41580.0,N2,N3,0.887751,0.080717,0.015527,0.013105,0.002899
1388,41610.0,N3,N3,0.905368,0.072277,0.012384,0.007955,0.002017
1389,41640.0,N3,N3,0.925198,0.057024,0.009109,0.006814,0.001855
1390,41670.0,N2,N3,0.898307,0.076693,0.015363,0.007477,0.00216
1391,41700.0,N2,N3,0.902087,0.074201,0.014178,0.007452,0.002081
1392,41730.0,N3,N3,0.903367,0.074996,0.01199,0.007843,0.001805
1393,41760.0,N2,N3,0.894839,0.080357,0.015266,0.007601,0.001937
1394,41790.0,N3,N3,0.908398,0.072832,0.010599,0.005965,0.002206
1395,41820.0,N2,N3,0.903354,0.069065,0.014118,0.010812,0.002651
1396,41850.0,N2,N3,0.925107,0.055342,0.009779,0.007759,0.002012
1397,41880.0,N3,N3,0.90869,0.076747,0.009156,0.003697,0.00171
1398,41910.0,N3,N3,0.917289,0.061999,0.012052,0.006739,0.001921
1399,41940.0,N3,N3,0.926446,0.057598,0.009636,0.004714,0.001606
1400,41970.0,N3,N3,0.908672,0.06694,0.014427,0.008084,0.001877
1401,42000.0,N3,N3,0.903384,0.070646,0.014611,0.0088,0.002559
1402,42030.0,N3,N3,0.896592,0.078963,0.014246,0.008211,0.001988
1403,42060.0,N3,N3,0.940285,0.044554,0.008994,0.00488,0.001286
1404,42090.0,N3,N3,0.907433,0.074018,0.01295,0.003856,0.001743
1405,42120.0,N3,N3,0.916744,0.057823,0.013965,0.005314,0.006154
1406,42150.0,N1,N3,0.952826,0.026846,0.010687,0.002267,0.007373
1407,42180.0,N2,N3,0.899549,0.07438,0.017085,0.00417,0.004815
1408,42210.0,N2,N3,0.913525,0.068496,0.011211,0.003216,0.003551
1409,42240.0,N2,N3,0.808254,0.122277,0.047592,0.013037,0.00884
1410,42270.0,N2,N3,0.947331,0.025693,0.00894,0.005137,0.012899
1411,42300.0,N2,N3,0.833711,0.11794,0.028001,0.010241,0.010106
1412,42330.0,N2,N3,0.838017,0.107714,0.026901,0.021247,0.006121
1413,42360.0,N2,N3,0.80966,0.116951,0.041776,0.017589,0.014023
1414,42390.0,N2,N3,0.787968,0.144102,0.040383,0.014971,0.012575
1415,42420.0,N2,N3,0.859309,0.08508,0.032551,0.014082,0.008978
1416,42450.0,N2,N3,0.809249,0.116369,0.039205,0.021119,0.014059
1417,42480.0,N2,N3,0.901069,0.057687,0.025093,0.008028,0.008123
1418,42510.0,N2,N3,0.828573,0.089234,0.035638,0.035647,0.010908
1419,42540.0,N2,N3,0.728135,0.147673,0.05557,0.051991,0.016631
1420,42570.0,N2,N3,0.764277,0.102624,0.055666,0.068805,0.008628
1421,42600.0,N2,N3,0.846732,0.09258,0.029742,0.012232,0.018713
1422,42630.0,N2,N3,0.83178,0.093882,0.029111,0.039077,0.00615
1423,42660.0,N2,N3,0.734238,0.135894,0.054253,0.057039,0.018576
1424,42690.0,N2,N3,0.775377,0.141874,0.03596,0.039389,0.0074
1425,42720.0,N2,N3,0.840812,0.0974,0.034636,0.020962,0.006189
1426,42750.0,N2,N3,0.84437,0.088428,0.040102,0.020457,0.006642
1427,42780.0,N2,N3,0.933783,0.038949,0.012556,0.004557,0.010154
1428,42810.0,N2,N3,0.841,0.094121,0.032151,0.019432,0.013295
1429,42840.0,N2,N3,0.764568,0.135175,0.043761,0.042325,0.014171
1430,42870.0,N2,N3,0.851464,0.085045,0.036944,0.014927,0.01162
1431,42900.0,N2,N3,0.778138,0.122512,0.040916,0.048411,0.010022
1432,42930.0,N2,N3,0.893622,0.066326,0.020705,0.008274,0.011072
1433,42960.0,N2,N3,0.594442,0.206042,0.079633,0.104529,0.015354
1434,42990.0,N2,N3,0.808578,0.097623,0.054639,0.032558,0.006602
1435,43020.0,N2,N3,0.778943,0.122683,0.050277,0.036852,0.011245
1436,43050.0,N2,N3,0.719252,0.159277,0.072232,0.041328,0.007911
1437,43080.0,N2,N3,0.84091,0.099989,0.034204,0.013763,0.011134
1438,43110.0,N2,N3,0.725824,0.143702,0.068186,0.05268,0.009608
1439,43140.0,N2,N3,0.849935,0.093644,0.037696,0.010003,0.008723
1440,43170.0,N2,N3,0.696821,0.16473,0.05944,0.067773,0.011237
1441,43200.0,N2,N3,0.808538,0.124938,0.037421,0.018023,0.01108
1442,43230.0,N2,N3,0.710513,0.155284,0.048649,0.074086,0.011467
1443,43260.0,N2,N3,0.794996,0.117411,0.04886,0.028369,0.010365
1444,43290.0,N2,N3,0.842869,0.089015,0.031712,0.026257,0.010147
1445,43320.0,N2,N3,0.770821,0.097881,0.083564,0.035922,0.011811
1446,43350.0,N2,N3,0.756037,0.134057,0.058191,0.039298,0.012417
1447,43380.0,N2,N3,0.802263,0.086579,0.067082,0.020235,0.023841
1448,43410.0,N1,N3,0.937849,0.035158,0.015233,0.004098,0.007663
1449,43440.0,N1,N3,0.890351,0.058819,0.02436,0.011256,0.015214
1450,43470.0,N2,N3,0.720196,0.152191,0.049938,0.065399,0.012277
1451,43500.0,N2,N3,0.771651,0.096149,0.062956,0.060287,0.008957
1452,43530.0,N2,N3,0.870651,0.080831,0.021887,0.010493,0.016138
1453,43560.0,N2,N3,0.796275,0.129932,0.030638,0.030748,0.012406
1454,43590.0,N2,N3,0.822854,0.110348,0.0378,0.015439,0.013559
1455,43620.0,N2,N3,0.649849,0.195728,0.07294,0.071055,0.010427
1456,43650.0,N2,N3,0.791501,0.097217,0.053861,0.048793,0.008629
1457,43680.0,N2,N3,0.856482,0.088897,0.035145,0.009551,0.009925
1458,43710.0,N2,N3,0.719214,0.140524,0.06325,0.066115,0.010897
1459,43740.0,N2,N3,0.641172,0.152859,0.058957,0.134389,0.012624
1460,43770.0,N2,N3,0.834559,0.099825,0.032104,0.015694,0.017818
1461,43800.0,N1,N1,0.92396,0.02201,0.021937,0.008102,0.023992
1462,43830.0,N1,N3,0.854997,0.09153,0.030569,0.009522,0.013383
1463,43860.0,N2,N3,0.779569,0.135307,0.048133,0.025444,0.011548
1464,43890.0,N2,N3,0.78699,0.136231,0.039255,0.02271,0.014814
1465,43920.0,N2,N3,0.774731,0.135664,0.048697,0.032623,0.008285
1466,43950.0,N2,N3,0.851704,0.081748,0.028787,0.030339,0.007422
1467,43980.0,N2,N3,0.815191,0.107357,0.0401,0.025447,0.011905
1468,44010.0,N2,N3,0.762907,0.136545,0.053127,0.028832,0.018589
1469,44040.0,N2,N3,0.888192,0.06526,0.027424,0.011172,0.007952
1470,44070.0,N2,N3,0.821499,0.117386,0.024757,0.028317,0.008042
1471,44100.0,N2,N3,0.80778,0.106981,0.03651,0.039815,0.008915
1472,44130.0,N2,N3,0.722572,0.153232,0.04014,0.06804,0.016016
1473,44160.0,N1,N3,0.842612,0.051446,0.040082,0.02651,0.03935
1474,44190.0,N1,N3,0.809269,0.104097,0.039693,0.016463,0.030478
1475,44220.0,N2,N3,0.827223,0.102643,0.031903,0.019477,0.018755
1476,44250.0,N2,N3,0.873192,0.070221,0.034332,0.008994,0.013261
1477,44280.0,N2,N3,0.700421,0.165061,0.083418,0.018594,0.032505
1478,44310.0,N2,N3,0.736849,0.098636,0.123572,0.022858,0.018084
1479,44340.0,N1,W,0.409595,0.089214,0.434146,0.018152,0.048893
1480,44370.0,N1,N1,0.603484,0.139254,0.153378,0.031809,0.072076
1481,44400.0,N1,N3,0.754548,0.131725,0.053716,0.020797,0.039214
1482,44430.0,N2,N3,0.814813,0.128044,0.029853,0.011753,0.015536
1483,44460.0,N2,N3,0.821568,0.109432,0.033928,0.025943,0.00913
1484,44490.0,N2,N3,0.756415,0.139233,0.04892,0.045394,0.010038
1485,44520.0,N2,N3,0.882349,0.074719,0.020127,0.016248,0.006557
1486,44550.0,N2,N3,0.849206,0.103634,0.028024,0.010928,0.008208
1487,44580.0,N2,N3,0.646352,0.174129,0.064951,0.101067,0.0135
1488,44610.0,REM,N3,0.776335,0.145027,0.032595,0.038784,0.007258
1489,44640.0,N2,N3,0.810597,0.109008,0.053148,0.013343,0.013904
1490,44670.0,N2,N3,0.711603,0.172295,0.0595,0.043959,0.012642
1491,44700.0,N2,N3,0.730845,0.138889,0.063959,0.054768,0.011538
1492,44730.0,N2,N3,0.807439,0.104773,0.058554,0.016682,0.012551
1493,44760.0,N2,N3,0.807582,0.117782,0.036861,0.026951,0.010824
1494,44790.0,N2,N3,0.768572,0.128888,0.040958,0.047935,0.013646
1495,44820.0,N2,N3,0.831196,0.104628,0.035734,0.019015,0.009428
1496,44850.0,N2,N3,0.730004,0.165044,0.054684,0.039109,0.011159
1497,44880.0,N2,N3,0.770934,0.148623,0.035433,0.034212,0.010799
1498,44910.0,W,N3,0.83851,0.056081,0.057272,0.011581,0.036557
1499,44940.0,N1,N3,0.736218,0.164633,0.044735,0.031093,0.023322
1500,44970.0,N2,N3,0.771363,0.12278,0.030832,0.065822,0.009202
1501,45000.0,N2,N3,0.769044,0.117241,0.062279,0.037399,0.014037
1502,45030.0,N2,N3,0.819307,0.113357,0.035667,0.015278,0.016391
1503,45060.0,N2,N3,0.81287,0.086949,0.045802,0.043437,0.010942
1504,45090.0,N2,N3,0.77907,0.155415,0.033376,0.023224,0.008916
1505,45120.0,N2,N3,0.789697,0.118218,0.05099,0.026352,0.014743
1506,45150.0,N2,N3,0.84761,0.109866,0.02267,0.013569,0.006286
1507,45180.0,N2,N3,0.760547,0.185118,0.028664,0.012199,0.013472
1508,45210.0,REM,N3,0.723415,0.199562,0.041777,0.017433,0.017813
1509,45240.0,REM,N3,0.728005,0.195643,0.043432,0.011967,0.020953
1510,45270.0,REM,N3,0.789645,0.136636,0.043392,0.009264,0.021063
1511,45300.0,REM,N3,0.715298,0.201775,0.04682,0.013654,0.022453
1512,45330.0,REM,N3,0.703921,0.173123,0.061546,0.021346,0.040064
1513,45360.0,REM,N3,0.709974,0.186146,0.058616,0.014673,0.030591
1514,45390.0,REM,N3,0.734994,0.164722,0.063873,0.015489,0.020922
1515,45420.0,N1,N1,0.73241,0.077106,0.101962,0.023386,0.065136
1516,45450.0,N1,N1,0.680807,0.198838,0.079607,0.015639,0.02511
1517,45480.0,REM,N1,0.77544,0.143479,0.050512,0.012396,0.018172
1518,45510.0,REM,N3,0.740475,0.153414,0.058153,0.015873,0.032085
1519,45540.0,REM,N3,0.712738,0.168543,0.071065,0.018731,0.028922
1520,45570.0,REM,N3,0.71469,0.202413,0.051074,0.012508,0.019316
1521,45600.0,REM,N3,0.747287,0.162726,0.051935,0.01467,0.023381
1522,45630.0,REM,N3,0.72001,0.197409,0.047471,0.013921,0.02119
1523,45660.0,REM,N3,0.814528,0.118332,0.041781,0.010781,0.014577
1524,45690.0,REM,N3,0.858749,0.09862,0.024602,0.007086,0.010944
1525,45720.0,REM,N3,0.802315,0.121331,0.044575,0.011435,0.020344
1526,45750.0,REM,N3,0.67838,0.187495,0.087663,0.016227,0.030236
1527,45780.0,REM,N3,0.747601,0.147438,0.065515,0.015354,0.024092
1528,45810.0,REM,N3,0.740779,0.16704,0.056775,0.012804,0.022601
1529,45840.0,REM,N1,0.751615,0.125741,0.057424,0.018534,0.046687
1530,45870.0,REM,N3,0.629984,0.238064,0.084077,0.016016,0.031858
1531,45900.0,REM,N3,0.64929,0.259547,0.052112,0.014946,0.024105
1532,45930.0,REM,N3,0.818437,0.115701,0.037445,0.011001,0.017416
1533,45960.0,REM,N3,0.725339,0.18521,0.054958,0.013057,0.021436
1534,45990.0,REM,N1,0.844714,0.103361,0.033442,0.006923,0.01156
1535,46020.0,REM,N3,0.733041,0.162798,0.058409,0.017244,0.028507
1536,46050.0,REM,N1,0.868404,0.086774,0.028089,0.006013,0.01072
1537,46080.0,REM,N3,0.747298,0.138018,0.071135,0.016413,0.027137
1538,46110.0,REM,N3,0.695867,0.206091,0.060625,0.01405,0.023366
1539,46140.0,REM,N1,0.732586,0.181261,0.045447,0.015744,0.024962
1540,46170.0,REM,N3,0.771427,0.153962,0.045358,0.011392,0.017861
1541,46200.0,REM,N1,0.863269,0.090119,0.027944,0.007094,0.011574
1542,46230.0,REM,N3,0.755077,0.143589,0.05895,0.016271,0.026113
1543,46260.0,REM,N3,0.738687,0.139468,0.075527,0.015828,0.03049
1544,46290.0,REM,N3,0.71543,0.186214,0.057327,0.01481,0.026219
1545,46320.0,REM,N3,0.712762,0.190238,0.062506,0.013193,0.0213
1546,46350.0,REM,N3,0.72547,0.178157,0.053846,0.015652,0.026875
1547,46380.0,REM,N3,0.755964,0.161366,0.04559,0.012917,0.024163
1548,46410.0,REM,N3,0.736622,0.18461,0.044641,0.012997,0.021129
1549,46440.0,REM,N3,0.812723,0.123715,0.038144,0.009344,0.016075
1550,46470.0,REM,N3,0.800258,0.142015,0.035391,0.008732,0.013605
1551,46500.0,REM,N3,0.797734,0.13864,0.030962,0.011187,0.021478
1552,46530.0,REM,N3,0.931229,0.024681,0.016047,0.006693,0.021351
1553,46560.0,N1,N3,0.797799,0.11604,0.049754,0.012674,0.023733
1554,46590.0,REM,N3,0.798433,0.138188,0.032212,0.012626,0.018541
1555,46620.0,REM,N3,0.799705,0.139035,0.036791,0.010873,0.013595
1556,46650.0,REM,N3,0.715248,0.182065,0.06927,0.01552,0.017897
1557,46680.0,N2,N3,0.727723,0.171264,0.062927,0.016487,0.0216
1558,46710.0,N2,N3,0.880753,0.046963,0.049333,0.006753,0.016198
1559,46740.0,N1,N3,0.720395,0.144357,0.097063,0.012575,0.025611
1560,46770.0,N1,N3,0.714872,0.219872,0.036979,0.013279,0.014998
1561,46800.0,N2,N3,0.819834,0.106351,0.043171,0.018698,0.011946
1562,46830.0,N2,N3,0.698358,0.196765,0.058566,0.031559,0.014752
1563,46860.0,N2,N3,0.644028,0.237197,0.046057,0.058771,0.013948
1564,46890.0,N2,N3,0.829033,0.11398,0.031765,0.013179,0.012043
1565,46920.0,N2,N3,0.766799,0.164563,0.042374,0.015647,0.010617
1566,46950.0,N2,N3,0.790856,0.107557,0.039567,0.050398,0.011621
1567,46980.0,N2,N3,0.792208,0.136686,0.040123,0.018587,0.012396
1568,47010.0,N2,N1,0.723831,0.17711,0.060583,0.015716,0.02276
1569,47040.0,N2,N3,0.625108,0.242828,0.054099,0.062745,0.01522
1570,47070.0,N2,N3,0.707684,0.170643,0.082682,0.03007,0.008921
1571,47100.0,N2,N3,0.668105,0.210884,0.062054,0.045408,0.013548
1572,47130.0,N2,N3,0.7564,0.149874,0.046789,0.035713,0.011224
1573,47160.0,N2,N3,0.776569,0.139081,0.047785,0.024584,0.011981
1574,47190.0,N2,N3,0.717346,0.191809,0.046867,0.029541,0.014437
1575,47220.0,N2,N3,0.744673,0.160712,0.051597,0.030039,0.012981
1576,47250.0,N2,N3,0.819076,0.11924,0.040041,0.010893,0.01075
1577,47280.0,N2,N3,0.741276,0.165017,0.053319,0.023578,0.016811
1578,47310.0,N2,N3,0.797536,0.135306,0.045128,0.010688,0.011341
1579,47340.0,N2,N3,0.842463,0.103408,0.029082,0.015834,0.009213
1580,47370.0,N2,N3,0.806033,0.128424,0.036412,0.014823,0.014308
1581,47400.0,N2,N3,0.79512,0.136648,0.037341,0.017418,0.013472
1582,47430.0,N2,N3,0.839056,0.107348,0.035001,0.011443,0.007151
1583,47460.0,N2,N3,0.790251,0.118069,0.044909,0.019246,0.027525
1584,47490.0,N1,N3,0.84894,0.070774,0.047494,0.008645,0.024148
1585,47520.0,N1,N3,0.81264,0.129758,0.037857,0.008274,0.011471
1586,47550.0,N2,N3,0.659789,0.199347,0.066316,0.05947,0.015078
1587,47580.0,N2,N3,0.749109,0.145281,0.045149,0.052455,0.008006
1588,47610.0,N2,N3,0.841881,0.109607,0.02985,0.009133,0.009528
1589,47640.0,N2,N3,0.782275,0.125329,0.054071,0.015599,0.022727
1590,47670.0,N2,N3,0.795227,0.131723,0.045216,0.01469,0.013144
1591,47700.0,N2,N3,0.745946,0.172426,0.051504,0.01714,0.012985
1592,47730.0,N2,N3,0.837088,0.118767,0.023103,0.014516,0.006526
1593,47760.0,N2,N3,0.777791,0.153634,0.037879,0.017772,0.012924
1594,47790.0,N1,N3,0.808147,0.111339,0.049783,0.011456,0.019276
1595,47820.0,N1,N3,0.635275,0.219785,0.075808,0.053991,0.015141
1596,47850.0,N2,N3,0.725242,0.165844,0.057113,0.04355,0.008251
1597,47880.0,N2,N3,0.77926,0.127811,0.052729,0.026254,0.013947
1598,47910.0,N2,N3,0.654187,0.188687,0.064376,0.084112,0.008638
1599,47940.0,N2,N3,0.817646,0.12516,0.027137,0.016952,0.013105
1600,47970.0,N2,N3,0.699319,0.225917,0.043381,0.013498,0.017885
1601,48000.0,N2,N3,0.80234,0.129877,0.039281,0.015204,0.013298
1602,48030.0,N2,N3,0.804858,0.117689,0.034576,0.031503,0.011375
1603,48060.0,N2,N3,0.711476,0.195571,0.054324,0.024087,0.014542
1604,48090.0,N2,N3,0.793694,0.125643,0.04757,0.023723,0.00937
1605,48120.0,N2,N3,0.814178,0.11536,0.039875,0.020991,0.009595
1606,48150.0,N2,N3,0.776377,0.149565,0.045603,0.019521,0.008935
1607,48180.0,N2,N3,0.788317,0.144042,0.03835,0.021465,0.007825
1608,48210.0,N2,N3,0.789218,0.143734,0.036221,0.019784,0.011042
1609,48240.0,N2,N3,0.746403,0.146739,0.061856,0.028597,0.016405
1610,48270.0,N2,N3,0.753032,0.150471,0.0539,0.013791,0.028806
1611,48300.0,N2,N3,0.751347,0.164407,0.055325,0.014914,0.014008
1612,48330.0,N2,N3,0.747526,0.171162,0.04208,0.023971,0.015262
1613,48360.0,N2,N3,0.806138,0.126887,0.042894,0.012701,0.01138
1614,48390.0,N2,N3,0.777062,0.160811,0.034015,0.019548,0.008563
1615,48420.0,N2,N3,0.815338,0.121333,0.035341,0.018361,0.009627
1616,48450.0,N2,N3,0.801504,0.130507,0.033703,0.026959,0.007328
1617,48480.0,N2,N3,0.789926,0.149005,0.038101,0.015349,0.00762
1618,48510.0,N2,N3,0.813865,0.12092,0.034339,0.023737,0.007139
1619,48540.0,N2,N3,0.723109,0.18551,0.047461,0.030402,0.013519
1620,48570.0,N2,N3,0.783859,0.135745,0.04613,0.023604,0.010662
1621,48600.0,N2,N3,0.801044,0.132444,0.041467,0.018008,0.007037
1622,48630.0,N2,N3,0.789424,0.126123,0.048458,0.026828,0.009167
1623,48660.0,N2,N3,0.728591,0.183791,0.045297,0.032672,0.009648
1624,48690.0,N2,N3,0.663623,0.201368,0.070495,0.052022,0.012492
1625,48720.0,N2,N3,0.764335,0.156046,0.038792,0.033455,0.007372
1626,48750.0,N2,N3,0.847906,0.098815,0.031574,0.009824,0.011881
1627,48780.0,N2,N3,0.637411,0.236463,0.049154,0.06058,0.016392
1628,48810.0,N2,N3,0.659536,0.193057,0.056406,0.082544,0.008456
1629,48840.0,N2,N3,0.829605,0.101099,0.037382,0.021828,0.010086
1630,48870.0,W,N3,0.804123,0.0452,0.095693,0.013783,0.041201
1631,48900.0,W,N1,0.427569,0.234214,0.253631,0.025872,0.058713
1632,48930.0,N1,N3,0.741635,0.176269,0.046609,0.012639,0.022847
1633,48960.0,N2,N3,0.852206,0.100698,0.03168,0.006375,0.00904
1634,48990.0,N2,N3,0.736777,0.175668,0.044241,0.03237,0.010944
1635,49020.0,N2,N3,0.645459,0.250417,0.047134,0.043463,0.013527
1636,49050.0,N2,N3,0.740438,0.162586,0.04454,0.041237,0.0112
1637,49080.0,N2,N3,0.699494,0.190727,0.040599,0.05876,0.01042
1638,49110.0,N2,N3,0.654481,0.211943,0.058464,0.064306,0.010806
1639,49140.0,N2,N3,0.658297,0.220566,0.058878,0.050411,0.011848
1640,49170.0,N2,N3,0.815728,0.137816,0.029024,0.01106,0.006371
1641,49200.0,N2,N3,0.782779,0.138563,0.047025,0.023265,0.008368
1642,49230.0,N2,N3,0.766747,0.162862,0.048027,0.013612,0.008752
1643,49260.0,N2,N3,0.664605,0.230739,0.050583,0.045142,0.008931
1644,49290.0,N2,N3,0.79169,0.151721,0.027729,0.021241,0.007619
1645,49320.0,N2,N3,0.872436,0.090739,0.02198,0.010175,0.00467
1646,49350.0,N2,N3,0.622999,0.251363,0.053291,0.059752,0.012594
1647,49380.0,N2,N3,0.768921,0.147424,0.051979,0.022865,0.008811
1648,49410.0,N2,N3,0.810206,0.143081,0.027764,0.009409,0.00954
1649,49440.0,N2,N3,0.662264,0.220059,0.054958,0.051117,0.011602
1650,49470.0,N2,N3,0.581086,0.275939,0.058353,0.072263,0.012358
1651,49500.0,N2,N3,0.829975,0.130159,0.026899,0.007071,0.005896
1652,49530.0,N2,N3,0.708983,0.196236,0.039286,0.045056,0.010439
1653,49560.0,N2,N3,0.752858,0.15865,0.046374,0.034755,0.007364
1654,49590.0,N2,N3,0.696067,0.22397,0.046293,0.023845,0.009824
1655,49620.0,N2,N3,0.877941,0.088408,0.020756,0.008324,0.004571
1656,49650.0,N2,N3,0.704743,0.191437,0.062866,0.028656,0.012298
1657,49680.0,N2,N3,0.716491,0.185473,0.051414,0.037284,0.009339
1658,49710.0,N2,N3,0.740995,0.176615,0.045256,0.030838,0.006296
1659,49740.0,N2,N3,0.754996,0.170414,0.031185,0.030875,0.01253
1660,49770.0,N2,N3,0.845161,0.097543,0.035616,0.015498,0.006182
1661,49800.0,N2,N3,0.744209,0.193399,0.03708,0.014913,0.010399
1662,49830.0,N2,N3,0.798874,0.152169,0.02893,0.013638,0.006388
1663,49860.0,N2,N3,0.802605,0.144858,0.032595,0.012028,0.007914
1664,49890.0,N2,N3,0.889457,0.079441,0.021082,0.005262,0.004757
1665,49920.0,N2,N3,0.77322,0.168509,0.034632,0.011534,0.012104
1666,49950.0,N2,N3,0.697946,0.19191,0.051668,0.045579,0.012896
1667,49980.0,N2,N3,0.764535,0.172461,0.040468,0.012265,0.010271
1668,50010.0,N2,N3,0.81705,0.138134,0.026814,0.00951,0.008492
1669,50040.0,N2,N3,0.773434,0.161954,0.035441,0.020231,0.00894
1670,50070.0,N2,N3,0.827489,0.135209,0.020873,0.007605,0.008824
1671,50100.0,N2,N3,0.732191,0.178722,0.061213,0.014721,0.013152
1672,50130.0,REM,N3,0.741408,0.207256,0.030892,0.008888,0.011557
1673,50160.0,REM,N3,0.712043,0.191033,0.051378,0.015949,0.029597
1674,50190.0,REM,N3,0.728173,0.19375,0.050491,0.010452,0.017135
1675,50220.0,REM,N3,0.724668,0.208121,0.035517,0.011756,0.019939
1676,50250.0,REM,N3,0.749919,0.170466,0.050399,0.011297,0.017919
1677,50280.0,REM,N3,0.726401,0.181416,0.05795,0.013618,0.020615
1678,50310.0,REM,N3,0.76593,0.149411,0.053326,0.01262,0.018713
1679,50340.0,REM,N3,0.736619,0.176439,0.047789,0.014795,0.024357
1680,50370.0,REM,N3,0.824121,0.117858,0.036351,0.00915,0.01252
1681,50400.0,REM,N1,0.786816,0.136378,0.046083,0.012332,0.01839
1682,50430.0,REM,N3,0.730497,0.189503,0.04853,0.011724,0.019745
1683,50460.0,REM,N3,0.779889,0.154008,0.037597,0.01068,0.017826
1684,50490.0,REM,N1,0.806723,0.13402,0.034609,0.008211,0.016437
1685,50520.0,N1,N3,0.738953,0.125678,0.081615,0.015087,0.038666
1686,50550.0,REM,N3,0.742528,0.134758,0.078587,0.015601,0.028526
1687,50580.0,REM,N3,0.754537,0.142437,0.075222,0.010012,0.017792
1688,50610.0,REM,N1,0.675607,0.184902,0.096325,0.016675,0.026491
1689,50640.0,REM,N3,0.768508,0.14161,0.057334,0.010907,0.021642
1690,50670.0,REM,N3,0.723477,0.143143,0.104243,0.0102,0.018938
1691,50700.0,REM,N3,0.733889,0.168213,0.063348,0.01304,0.021511
1692,50730.0,REM,N3,0.857729,0.058509,0.038615,0.0118,0.033346
1693,50760.0,REM,N3,0.745758,0.153585,0.063351,0.014877,0.02243
1694,50790.0,REM,N3,0.783008,0.14338,0.042463,0.011917,0.019232
1695,50820.0,REM,N3,0.745421,0.187345,0.038719,0.011142,0.017373
1696,50850.0,REM,N3,0.737398,0.211379,0.030888,0.007152,0.013183
1697,50880.0,REM,N3,0.746398,0.203226,0.033182,0.00689,0.010304
1698,50910.0,REM,N1,0.537083,0.183737,0.217214,0.019275,0.042691
1699,50940.0,REM,N3,0.696194,0.178676,0.065958,0.019708,0.039464
1700,50970.0,REM,N3,0.785702,0.159179,0.031954,0.009858,0.013308
1701,51000.0,REM,N3,0.908141,0.024534,0.040126,0.00793,0.019268
1702,51030.0,W,N1,0.831699,0.042335,0.10895,0.005191,0.011826
1703,51060.0,W,N1,0.444293,0.188514,0.30279,0.020775,0.043629
1704,51090.0,W,N3,0.829432,0.049528,0.103013,0.006367,0.01166
1705,51120.0,W,N1,0.604011,0.098807,0.261674,0.012087,0.023421
1706,51150.0,W,N3,0.972752,0.011623,0.012997,0.000916,0.001712
1707,51180.0,W,N3,0.932806,0.048517,0.012829,0.00181,0.004038
1708,51210.0,W,N3,0.931162,0.057035,0.008244,0.001509,0.002051
1709,51240.0,W,N3,0.919535,0.05678,0.011759,0.003595,0.00833
1710,51270.0,W,N3,0.939205,0.041187,0.010777,0.003046,0.005785
1711,51300.0,W,N3,0.912168,0.056539,0.013278,0.005255,0.01276
1712,51330.0,W,N3,0.911298,0.065909,0.009263,0.004394,0.009137
1713,51360.0,W,N3,0.893836,0.068955,0.013794,0.007058,0.016356
1714,51390.0,W,N3,0.882638,0.068388,0.018691,0.00791,0.022373
1715,51420.0,W,N3,0.920303,0.047513,0.012369,0.006602,0.013213
1716,51450.0,W,N3,0.91806,0.032922,0.026774,0.006048,0.016197
1717,51480.0,W,N3,0.930705,0.04268,0.012404,0.003878,0.010333
1718,51510.0,W,N3,0.905939,0.05291,0.015792,0.00704,0.018319
1719,51540.0,W,N3,0.892595,0.070314,0.015514,0.006561,0.015015
1720,51570.0,W,N3,0.840654,0.101284,0.021093,0.010223,0.026747
1721,51600.0,W,N3,0.886366,0.064202,0.017055,0.010489,0.021888
1722,51630.0,W,N3,0.74152,0.118483,0.03655,0.028607,0.07484
1723,51660.0,W,N3,0.729591,0.109968,0.04387,0.030744,0.085827
1724,51690.0,W,N3,0.75322,0.160533,0.031366,0.018151,0.03673
1725,51720.0,W,N1,0.714807,0.125406,0.039232,0.038908,0.081647
1726,51750.0,W,N3,0.884825,0.059009,0.016539,0.011863,0.027763
1727,51780.0,W,N3,0.902719,0.061077,0.012525,0.008192,0.015486
1728,51810.0,W,N3,0.918716,0.04945,0.013411,0.005924,0.0125
1729,51840.0,W,N3,0.927656,0.043323,0.011027,0.004959,0.013035
1730,51870.0,W,N3,0.922924,0.0547,0.010192,0.004416,0.007768
1731,51900.0,W,N3,0.90295,0.066303,0.012447,0.006445,0.011856
1732,51930.0,W,N3,0.887849,0.077335,0.015346,0.006992,0.012478
1733,51960.0,W,N3,0.938533,0.042614,0.0099,0.003907,0.005047
1734,51990.0,W,N3,0.918026,0.05583,0.012346,0.0056,0.008198
1735,52020.0,W,N3,0.919188,0.053845,0.012857,0.004715,0.009394
1736,52050.0,W,N3,0.908422,0.055991,0.015821,0.006251,0.013514
1737,52080.0,W,N3,0.90054,0.067966,0.014495,0.00591,0.011089
1738,52110.0,W,N3,0.924641,0.053226,0.010529,0.003976,0.007629
1739,52140.0,W,N3,0.910676,0.051675,0.012912,0.008804,0.015933
1740,52170.0,W,N3,0.897342,0.064951,0.015958,0.008129,0.013621
1741,52200.0,W,N3,0.916022,0.037509,0.015916,0.008538,0.022014
1742,52230.0,W,N3,0.862176,0.077662,0.020494,0.012927,0.026742
1743,52260.0,W,N3,0.900733,0.054148,0.014118,0.009346,0.021655
1744,52290.0,W,N3,0.929151,0.0481,0.010647,0.004177,0.007925
1745,52320.0,W,N3,0.919778,0.057064,0.01248,0.004222,0.006456
1746,52350.0,W,N3,0.92472,0.045597,0.012053,0.005586,0.012044
1747,52380.0,W,N3,0.914466,0.053692,0.013129,0.005837,0.012876
1748,52410.0,W,N3,0.906659,0.0449,0.014923,0.011897,0.021622
1749,52440.0,W,N3,0.921054,0.042993,0.015309,0.006465,0.014179
1750,52470.0,W,N3,0.888979,0.06548,0.019481,0.009205,0.016855
1751,52500.0,W,N3,0.913078,0.052618,0.014351,0.006705,0.013249
1752,52530.0,W,N3,0.909465,0.057598,0.013833,0.005741,0.013362
1753,52560.0,W,N3,0.904083,0.067513,0.013665,0.004842,0.009897
1754,52590.0,W,N3,0.88972,0.06088,0.023307,0.008276,0.017818
1755,52620.0,W,N3,0.911207,0.066613,0.011458,0.003782,0.006939
1756,52650.0,W,N3,0.934245,0.04112,0.011763,0.004607,0.008265
1757,52680.0,W,N1,0.915994,0.055318,0.011685,0.00574,0.011262
1758,52710.0,W,N3,0.901527,0.062659,0.016008,0.006353,0.013452
1759,52740.0,W,N3,0.829052,0.111741,0.028424,0.010443,0.02034
1760,52770.0,W,N3,0.921304,0.046531,0.014085,0.005573,0.012507
1761,52800.0,W,N3,0.918953,0.051945,0.01231,0.005764,0.011029
1762,52830.0,W,N3,0.918098,0.046536,0.01679,0.005809,0.012767
1763,52860.0,W,N3,0.938979,0.03668,0.010752,0.004375,0.009213
1764,52890.0,W,N3,0.904709,0.042723,0.016745,0.010527,0.025296
1765,52920.0,W,N3,0.911336,0.058192,0.01515,0.004883,0.01044
1766,52950.0,W,N3,0.916113,0.057581,0.011822,0.005128,0.009356
1767,52980.0,W,N3,0.934523,0.047175,0.008814,0.003463,0.006025
1768,53010.0,W,N3,0.924653,0.043806,0.012591,0.005693,0.013257
1769,53040.0,W,N3,0.89903,0.062101,0.018229,0.006416,0.014223
1770,53070.0,W,N3,0.869133,0.088356,0.016102,0.007708,0.018702
1771,53100.0,W,N3,0.932227,0.040322,0.010514,0.005799,0.011137
1772,53130.0,W,N3,0.894582,0.044699,0.018813,0.014125,0.02778
1773,53160.0,W,N3,0.828489,0.063536,0.036399,0.023767,0.04781
1774,53190.0,W,N3,0.870363,0.052266,0.025206,0.01651,0.035654
1775,53220.0,W,N3,0.864334,0.053079,0.025964,0.015008,0.041615
1776,53250.0,W,N3,0.864309,0.05619,0.025774,0.017718,0.036009
1777,53280.0,W,N3,0.842356,0.092192,0.024372,0.012504,0.028576
1778,53310.0,W,N3,0.872771,0.067255,0.021445,0.01079,0.027739
1779,53340.0,W,N3,0.880581,0.071711,0.020488,0.007714,0.019507
1780,53370.0,W,N3,0.884857,0.045135,0.023969,0.01719,0.02885
1781,53400.0,W,N3,0.819251,0.066342,0.036212,0.02575,0.052445
1782,53430.0,W,N3,0.79886,0.099999,0.037347,0.021358,0.042435
1783,53460.0,W,N3,0.825469,0.062113,0.034993,0.02864,0.048784
1784,53490.0,W,N3,0.851575,0.050815,0.030194,0.020479,0.046937
1785,53520.0,W,N3,0.801147,0.082725,0.037823,0.026305,0.052
1786,53550.0,W,N3,0.806915,0.101954,0.032963,0.020769,0.037399
1787,53580.0,W,N3,0.88642,0.062259,0.019243,0.011135,0.020942
1788,53610.0,W,N1,0.798665,0.079281,0.035766,0.023684,0.062603
1789,53640.0,W,N1,0.755676,0.095583,0.052423,0.02649,0.069828
1790,53670.0,W,N1,0.807036,0.072284,0.037414,0.026669,0.056598
1791,53700.0,W,N3,0.764558,0.073662,0.051815,0.026024,0.083941
1792,53730.0,W,N3,0.727177,0.073313,0.056878,0.027547,0.115085
1793,53760.0,W,N3,0.87308,0.053942,0.028116,0.014413,0.030449
1794,53790.0,W,N3,0.880652,0.04172,0.022615,0.01401,0.041004
1795,53820.0,W,N3,0.847714,0.053487,0.027505,0.019915,0.051379
1796,53850.0,W,N1,0.756396,0.057914,0.042132,0.026993,0.116565
1797,53880.0,W,N3,0.905603,0.037775,0.017615,0.012489,0.026517
1798,53910.0,W,N3,0.819869,0.085771,0.033348,0.018612,0.042399
1799,53940.0,W,N3,0.884584,0.055212,0.019987,0.01182,0.028396
1800,53970.0,W,N3,0.921699,0.048346,0.01129,0.005743,0.012923
1801,54000.0,W,N3,0.904123,0.059529,0.013673,0.006983,0.015692
1802,54030.0,W,N3,0.889785,0.056013,0.019501,0.010964,0.023737
1803,54060.0,W,N3,0.88102,0.050246,0.026013,0.012911,0.02981
1804,54090.0,W,N3,0.897346,0.058313,0.017854,0.008354,0.018134
1805,54120.0,W,N3,0.846053,0.05252,0.028479,0.020993,0.051955
1806,54150.0,W,N3,0.817691,0.07067,0.034104,0.021435,0.0561
1807,54180.0,W,N1,0.767592,0.071719,0.055865,0.029061,0.075764
1808,54210.0,W,N3,0.841669,0.061511,0.033306,0.018242,0.045273
1809,54240.0,W,N3,0.812024,0.077837,0.033402,0.018813,0.057925
1810,54270.0,W,N3,0.856383,0.069912,0.022828,0.013988,0.036889
1811,54300.0,W,N1,0.822591,0.073046,0.034193,0.019513,0.050657
1812,54330.0,W,N3,0.866809,0.060642,0.024664,0.013027,0.034858
1813,54360.0,W,N3,0.794897,0.063927,0.045173,0.028683,0.06732
1814,54390.0,W,N3,0.886268,0.058549,0.017224,0.01112,0.026839
1815,54420.0,W,N3,0.865381,0.059309,0.02393,0.015925,0.035455
1816,54450.0,W,N3,0.874078,0.059122,0.020242,0.012518,0.03404
1817,54480.0,W,N3,0.907479,0.055534,0.012659,0.008068,0.01626
1818,54510.0,W,N1,0.862629,0.059563,0.022198,0.020969,0.034641
1819,54540.0,W,N1,0.843951,0.055758,0.032049,0.023363,0.044879
1820,54570.0,W,N3,0.864674,0.063332,0.025104,0.014745,0.032144
1821,54600.0,W,N1,0.797855,0.085748,0.0392,0.022716,0.05448
1822,54630.0,W,N3,0.820046,0.082847,0.030008,0.019005,0.048094
1823,54660.0,W,N3,0.892558,0.056022,0.018471,0.010206,0.022742
1824,54690.0,W,N3,0.882204,0.070163,0.017343,0.01021,0.02008
1825,54720.0,W,N3,0.884542,0.079296,0.013728,0.006961,0.015472
1826,54750.0,W,N3,0.869027,0.07898,0.025166,0.008748,0.018078
1827,54780.0,W,N3,0.866237,0.091555,0.021509,0.008093,0.012606
1828,54810.0,W,N3,0.802698,0.131375,0.030132,0.011926,0.023868
1829,54840.0,W,N3,0.91358,0.064111,0.010752,0.004028,0.007529
1830,54870.0,W,N3,0.909969,0.061096,0.012321,0.006305,0.01031
1831,54900.0,W,N3,0.914162,0.06762,0.009545,0.003398,0.005275
1832,54930.0,W,N3,0.924113,0.054348,0.01052,0.004281,0.006737
1833,54960.0,W,N3,0.920513,0.058227,0.010762,0.003706,0.006792
1834,54990.0,W,N3,0.908615,0.068653,0.011867,0.004056,0.00681
1835,55020.0,W,N3,0.912357,0.0641,0.011632,0.004582,0.00733
1836,55050.0,W,N3,0.88545,0.085386,0.014961,0.005496,0.008707
1837,55080.0,W,N3,0.918967,0.059461,0.010563,0.004894,0.006115
1838,55110.0,W,N3,0.903259,0.076258,0.010875,0.003766,0.005842
1839,55140.0,W,N3,0.909729,0.064603,0.011723,0.004894,0.009051
1840,55170.0,W,N3,0.895405,0.075462,0.01535,0.005211,0.008572
1841,55200.0,W,N3,0.909616,0.068726,0.010953,0.003877,0.006828
1842,55230.0,W,N3,0.924644,0.05145,0.010823,0.004892,0.008191
1843,55260.0,W,N3,0.923129,0.059432,0.009069,0.003276,0.005093
1844,55290.0,W,N3,0.904601,0.06636,0.012023,0.006009,0.011006
1845,55320.0,W,N3,0.918445,0.052974,0.012139,0.005631,0.010812
1846,55350.0,W,N3,0.913931,0.067377,0.010173,0.003641,0.004878
1847,55380.0,W,N3,0.924955,0.058087,0.009048,0.003237,0.004673
1848,55410.0,W,N3,0.922661,0.054819,0.010604,0.00403,0.007886
1849,55440.0,W,N3,0.927717,0.053688,0.010275,0.003511,0.004809
1850,55470.0,W,N3,0.933611,0.03772,0.010766,0.006686,0.011218
1851,55500.0,W,N3,0.907734,0.055095,0.019278,0.006601,0.011292
1852,55530.0,W,N3,0.931347,0.047589,0.01066,0.003719,0.006686
1853,55560.0,W,N3,0.919573,0.056653,0.012296,0.004059,0.007419
1854,55590.0,W,N3,0.905524,0.067248,0.014218,0.005077,0.007933
1855,55620.0,W,N3,0.903817,0.069025,0.015589,0.004572,0.006997
1856,55650.0,W,N3,0.894368,0.071787,0.019882,0.005697,0.008267
1857,55680.0,W,N3,0.907843,0.062687,0.017687,0.004761,0.007021
1858,55710.0,W,N3,0.810747,0.122242,0.033886,0.011334,0.02179
1859,55740.0,W,N3,0.816239,0.116752,0.034306,0.012877,0.019825
1860,55770.0,W,N3,0.894031,0.067611,0.01859,0.007169,0.012598
1861,55800.0,W,N1,0.901492,0.061148,0.021978,0.006178,0.009204
1862,55830.0,W,N3,0.874859,0.080768,0.023527,0.008396,0.01245
1863,55860.0,W,N3,0.843027,0.108791,0.024752,0.008232,0.015199
1864,55890.0,W,N3,0.931448,0.044601,0.01135,0.004703,0.007898
1865,55920.0,W,N3,0.912131,0.060797,0.014387,0.004913,0.007772
1866,55950.0,W,N3,0.899496,0.076231,0.012808,0.004503,0.006961
1867,55980.0,W,N3,0.92122,0.047689,0.013143,0.005846,0.012102
1868,56010.0,W,N3,0.826503,0.08654,0.030451,0.019808,0.036699
1869,56040.0,W,N3,0.880641,0.07617,0.018909,0.009071,0.01521
1870,56070.0,W,N3,0.887983,0.062908,0.016279,0.008241,0.02459
1871,56100.0,W,N3,0.86673,0.076558,0.019101,0.012649,0.024962
1872,56130.0,W,N3,0.90322,0.063705,0.013275,0.006307,0.013493
1873,56160.0,W,N3,0.877238,0.084371,0.015724,0.006365,0.016303
1874,56190.0,W,N3,0.902359,0.054621,0.015473,0.008515,0.019031
1875,56220.0,W,N3,0.92554,0.047404,0.010155,0.005375,0.011527
1876,56250.0,W,N3,0.90884,0.060299,0.013346,0.005204,0.01231
1877,56280.0,W,N3,0.886733,0.063371,0.021678,0.007738,0.02048
1878,56310.0,W,N3,0.840765,0.076886,0.028147,0.016486,0.037716
1879,56340.0,W,N1,0.838273,0.066501,0.032247,0.018234,0.044745
1880,56370.0,W,N3,0.850712,0.092736,0.024097,0.008592,0.023863
1881,56400.0,W,N3,0.881256,0.04853,0.02218,0.012724,0.03531
1882,56430.0,W,N3,0.865731,0.076931,0.023366,0.010605,0.023367
1883,56460.0,W,N3,0.893151,0.060638,0.018815,0.007817,0.019579
1884,56490.0,W,N3,0.8534,0.070463,0.025276,0.017483,0.033378
1885,56520.0,W,N3,0.877531,0.074786,0.02073,0.008795,0.018158
1886,56550.0,W,N3,0.825598,0.111189,0.025824,0.009367,0.028021
1887,56580.0,W,N3,0.845254,0.092501,0.026187,0.010801,0.025256
1888,56610.0,W,N3,0.879824,0.057839,0.023566,0.01179,0.026981
1889,56640.0,W,N1,0.805738,0.090984,0.036082,0.020045,0.047151
1890,56670.0,W,N3,0.797898,0.08727,0.037554,0.021515,0.055763
1891,56700.0,W,N3,0.855354,0.066726,0.026037,0.016994,0.03489
1892,56730.0,W,N3,0.858904,0.049887,0.029337,0.019969,0.041903
1893,56760.0,W,N3,0.836996,0.094193,0.028217,0.014535,0.026059
1894,56790.0,W,N3,0.887913,0.095452,0.009868,0.00296,0.003806
1895,56820.0,W,N3,0.890652,0.080553,0.015771,0.004682,0.008342
1896,56850.0,W,N3,0.907623,0.071905,0.011222,0.003816,0.005434
1897,56880.0,W,N3,0.904154,0.07327,0.010424,0.00428,0.007872
1898,56910.0,W,N3,0.873521,0.093788,0.016738,0.005856,0.010096
1899,56940.0,W,N3,0.897116,0.055674,0.019392,0.009403,0.018416
1900,56970.0,W,N3,0.768092,0.14983,0.040069,0.026957,0.015053
1901,57000.0,W,N3,0.880085,0.087318,0.019149,0.005962,0.007487
1902,57030.0,W,N3,0.894543,0.077579,0.015143,0.00491,0.007825
1903,57060.0,W,N3,0.921006,0.058274,0.012049,0.00381,0.004861
1904,57090.0,W,N3,0.895196,0.084024,0.011879,0.003677,0.005224
1905,57120.0,W,N3,0.903972,0.069852,0.013647,0.00516,0.007369
1906,57150.0,W,N3,0.922801,0.052572,0.012404,0.004393,0.007829
1907,57180.0,W,N3,0.884584,0.088591,0.016032,0.004396,0.006396
1908,57210.0,W,N3,0.902613,0.07421,0.012609,0.004331,0.006237
1909,57240.0,W,N3,0.922496,0.052749,0.013405,0.004229,0.007121
1910,57270.0,W,N3,0.90224,0.062285,0.018808,0.006067,0.010601
1911,57300.0,W,N3,0.772752,0.147864,0.044789,0.014542,0.020053
1912,57330.0,W,N3,0.799522,0.126045,0.040594,0.012544,0.021295
1913,57360.0,W,N3,0.79036,0.127071,0.036612,0.014864,0.031093
1914,57390.0,W,N3,0.835933,0.06919,0.031424,0.018886,0.044567
1915,57420.0,W,N3,0.789967,0.095818,0.042071,0.024553,0.047592
1916,57450.0,W,N3,0.831999,0.080962,0.035307,0.017891,0.03384
1917,57480.0,W,N3,0.766294,0.119905,0.043023,0.022343,0.048435
1918,57510.0,W,N3,0.76744,0.118341,0.042795,0.023712,0.047711
1919,57540.0,W,N1,0.838944,0.082584,0.031784,0.014365,0.032323
1920,57570.0,W,N3,0.852713,0.07064,0.028181,0.017021,0.031445
1921,57600.0,W,N3,0.888686,0.066235,0.017631,0.009418,0.01803
1922,57630.0,W,N3,0.853908,0.05847,0.028358,0.019397,0.039867
1923,57660.0,W,N1,0.781666,0.065313,0.046373,0.036727,0.069921
1924,57690.0,W,N1,0.794657,0.067107,0.037619,0.029142,0.071475
1925,57720.0,W,N3,0.82714,0.076861,0.029219,0.02347,0.043309
1926,57750.0,W,N1,0.771874,0.081335,0.045139,0.031652,0.070001
